Angle (deg),Magnitude (dB),Phase (deg)
0.0,-5.95883,-158.274
0.1,-5.95892,-158.274
0.2,-5.95921,-158.273
0.3,-5.95969,-158.271
0.4,-5.96036,-158.268
0.5,-5.96122,-158.264
0.6,-5.96227,-158.259
0.7,-5.96351,-158.253
0.8,-5.96495,-158.247
0.9,-5.96658,-158.24
1.0,-5.9684,-158.231
1.1,-5.97041,-158.222
1.2,-5.97262,-158.213
1.3,-5.97502,-158.202
1.4,-5.97762,-158.19
1.5,-5.98042,-158.178
1.6,-5.9834,-158.165
1.7,-5.98659,-158.15
1.8,-5.98997,-158.135
1.9,-5.99356,-158.12
2.0,-5.99734,-158.103
2.1,-6.00132,-158.086
2.2,-6.0055,-158.067
2.3,-6.00989,-158.048
2.4,-6.01448,-158.028
2.5,-6.01927,-158.008
2.6,-6.02427,-157.986
2.7,-6.02948,-157.964
2.8,-6.03489,-157.941
2.9,-6.04051,-157.917
3.0,-6.04635,-157.892
3.1,-6.05239,-157.866
3.2,-6.05865,-157.84
3.3,-6.06512,-157.813
3.4,-6.07181,-157.785
3.5,-6.07872,-157.756
3.6,-6.08585,-157.727
3.7,-6.0932,-157.697
3.8,-6.10077,-157.666
3.9,-6.10857,-157.634
4.0,-6.11659,-157.602
4.1,-6.12485,-157.569
4.2,-6.13333,-157.535
4.3,-6.14205,-157.501
4.4,-6.151,-157.465
4.5,-6.16019,-157.43
4.6,-6.16962,-157.393
4.7,-6.17929,-157.356
4.8,-6.1892,-157.318
4.9,-6.19936,-157.279
5.0,-6.20977,-157.24
5.1,-6.22043,-157.2
5.2,-6.23135,-157.16
5.3,-6.24252,-157.119
5.4,-6.25395,-157.077
5.5,-6.26564,-157.035
5.6,-6.27759,-156.992
5.7,-6.28982,-156.949
5.8,-6.30231,-156.905
5.9,-6.31508,-156.86
6.0,-6.32812,-156.815
6.1,-6.34144,-156.77
6.2,-6.35505,-156.724
6.3,-6.36894,-156.678
6.4,-6.38312,-156.631
6.5,-6.3976,-156.583
6.6,-6.41237,-156.536
6.7,-6.42744,-156.488
6.8,-6.44281,-156.439
6.9,-6.45849,-156.39
7.0,-6.47448,-156.341
7.1,-6.49078,-156.291
7.2,-6.50741,-156.242
7.3,-6.52435,-156.191
7.4,-6.54162,-156.141
7.5,-6.55923,-156.09
7.6,-6.57716,-156.04
7.7,-6.59544,-155.988
7.8,-6.61405,-155.937
7.9,-6.63302,-155.886
8.0,-6.65234,-155.835
8.1,-6.67201,-155.783
8.2,-6.69205,-155.731
8.3,-6.71245,-155.68
8.4,-6.73322,-155.628
8.5,-6.75437,-155.577
8.6,-6.77589,-155.525
8.7,-6.7978,-155.474
8.8,-6.82011,-155.423
8.9,-6.8428,-155.372
9.0,-6.8659,-155.321
9.1,-6.8894,-155.27
9.2,-6.91332,-155.22
9.3,-6.93765,-155.17
9.4,-6.9624,-155.121
9.5,-6.98759,-155.072
9.6,-7.0132,-155.023
9.7,-7.03925,-154.975
9.8,-7.06575,-154.927
9.9,-7.0927,-154.881
10.0,-7.1201,-154.834
10.1,-7.14797,-154.789
10.2,-7.17631,-154.744
10.3,-7.20512,-154.7
10.4,-7.23441,-154.657
10.5,-7.26418,-154.615
10.6,-7.29445,-154.574
10.7,-7.32522,-154.534
10.8,-7.35649,-154.496
10.9,-7.38828,-154.458
11.0,-7.42058,-154.422
11.1,-7.45341,-154.387
11.2,-7.48677,-154.354
11.3,-7.52066,-154.322
11.4,-7.5551,-154.292
11.5,-7.59008,-154.263
11.6,-7.62563,-154.236
11.7,-7.66173,-154.211
11.8,-7.69841,-154.189
11.9,-7.73565,-154.168
12.0,-7.77348,-154.149
12.1,-7.8119,-154.133
12.2,-7.85091,-154.119
12.3,-7.89051,-154.108
12.4,-7.93073,-154.099
12.5,-7.97155,-154.093
12.6,-8.01298,-154.09
12.7,-8.05504,-154.09
12.8,-8.09772,-154.093
12.9,-8.14104,-154.099
13.0,-8.18499,-154.109
13.1,-8.22958,-154.122
13.2,-8.27481,-154.139
13.3,-8.32069,-154.16
13.4,-8.36722,-154.185
13.5,-8.4144,-154.214
13.6,-8.46224,-154.248
13.7,-8.51074,-154.286
13.8,-8.5599,-154.329
13.9,-8.60971,-154.377
14.0,-8.66019,-154.43
14.1,-8.71133,-154.488
14.2,-8.76313,-154.552
14.3,-8.81558,-154.622
14.4,-8.86869,-154.697
14.5,-8.92245,-154.779
14.6,-8.97686,-154.867
14.7,-9.0319,-154.962
14.8,-9.08758,-155.064
14.9,-9.14388,-155.174
15.0,-9.2008,-155.29
15.1,-9.25832,-155.415
15.2,-9.31644,-155.547
15.3,-9.37513,-155.688
15.4,-9.43439,-155.838
15.5,-9.49419,-155.996
15.6,-9.55451,-156.163
15.7,-9.61533,-156.34
15.8,-9.67664,-156.527
15.9,-9.73839,-156.724
16.0,-9.80057,-156.932
16.1,-9.86314,-157.15
16.2,-9.92607,-157.38
16.3,-9.98931,-157.621
16.4,-10.0528,-157.874
16.5,-10.1166,-158.139
16.6,-10.1805,-158.417
16.7,-10.2446,-158.708
16.8,-10.3088,-159.012
16.9,-10.3729,-159.329
17.0,-10.4371,-159.661
17.1,-10.5011,-160.007
17.2,-10.5649,-160.367
17.3,-10.6285,-160.742
17.4,-10.6917,-161.133
17.5,-10.7545,-161.539
17.6,-10.8168,-161.96
17.7,-10.8785,-162.398
17.8,-10.9394,-162.852
17.9,-10.9995,-163.322
18.0,-11.0587,-163.81
18.1,-11.1168,-164.313
18.2,-11.1738,-164.834
18.3,-11.2295,-165.372
18.4,-11.2837,-165.926
18.5,-11.3364,-166.498
18.6,-11.3874,-167.087
18.7,-11.4365,-167.692
18.8,-11.4837,-168.314
18.9,-11.5287,-168.952
19.0,-11.5715,-169.606
19.1,-11.6118,-170.275
19.2,-11.6496,-170.96
19.3,-11.6846,-171.66
19.4,-11.7168,-172.373
19.5,-11.7461,-173.1
19.6,-11.7721,-173.84
19.7,-11.7949,-174.591
19.8,-11.8144,-175.354
19.9,-11.8303,-176.126
20.0,-11.8426,-176.908
20.1,-11.8511,-177.697
20.2,-11.8559,-178.493
20.3,-11.8568,-179.295
20.4,-11.8537,179.899
20.5,-11.8466,179.09
20.6,-11.8354,178.279
20.7,-11.8202,177.468
20.8,-11.8008,176.657
20.9,-11.7774,175.849
21.0,-11.7499,175.044
21.1,-11.7184,174.245
21.2,-11.6828,173.451
21.3,-11.6433,172.665
21.4,-11.5999,171.888
21.5,-11.5527,171.121
21.6,-11.5019,170.365
21.7,-11.4474,169.622
21.8,-11.3895,168.891
21.9,-11.3282,168.175
22.0,-11.2636,167.474
22.1,-11.196,166.79
22.2,-11.1255,166.122
22.3,-11.0522,165.471
22.4,-10.9762,164.838
22.5,-10.8977,164.225
22.6,-10.817,163.63
22.7,-10.734,163.054
22.8,-10.649,162.499
22.9,-10.5622,161.963
23.0,-10.4737,161.448
23.1,-10.3836,160.953
23.2,-10.2921,160.479
23.3,-10.1994,160.024
23.4,-10.1055,159.591
23.5,-10.0107,159.177
23.6,-9.91495,158.784
23.7,-9.81852,158.411
23.8,-9.72149,158.058
23.9,-9.62397,157.724
24.0,-9.52607,157.409
24.1,-9.42791,157.114
24.2,-9.32958,156.837
24.3,-9.23117,156.579
24.4,-9.13279,156.338
24.5,-9.0345,156.116
24.6,-8.93641,155.911
24.7,-8.83857,155.722
24.8,-8.74107,155.55
24.9,-8.64396,155.395
25.0,-8.54731,155.255
25.1,-8.45119,155.13
25.2,-8.35563,155.02
25.3,-8.2607,154.925
25.4,-8.16644,154.844
25.5,-8.07289,154.777
25.6,-7.98009,154.723
25.7,-7.88808,154.682
25.8,-7.79689,154.653
25.9,-7.70655,154.637
26.0,-7.61709,154.632
26.1,-7.52853,154.639
26.2,-7.4409,154.657
26.3,-7.35422,154.686
26.4,-7.2685,154.725
26.5,-7.18376,154.773
26.6,-7.10001,154.832
26.7,-7.01727,154.9
26.8,-6.93555,154.977
26.9,-6.85486,155.062
27.0,-6.77519,155.156
27.1,-6.69657,155.259
27.2,-6.61899,155.368
27.3,-6.54246,155.486
27.4,-6.46698,155.61
27.5,-6.39255,155.742
27.6,-6.31918,155.88
27.7,-6.24685,156.025
27.8,-6.17558,156.176
27.9,-6.10535,156.333
28.0,-6.03616,156.496
28.1,-5.96802,156.664
28.2,-5.90092,156.838
28.3,-5.83484,157.017
28.4,-5.76979,157.2
28.5,-5.70577,157.388
28.6,-5.64275,157.581
28.7,-5.58075,157.778
28.8,-5.51974,157.98
28.9,-5.45973,158.185
29.0,-5.4007,158.394
29.1,-5.34265,158.606
29.2,-5.28557,158.823
29.3,-5.22944,159.042
29.4,-5.17427,159.265
29.5,-5.12004,159.49
29.6,-5.06675,159.719
29.7,-5.01438,159.95
29.8,-4.96292,160.184
29.9,-4.91237,160.421
30.0,-4.86271,160.66
30.1,-4.81394,160.901
30.2,-4.76605,161.144
30.3,-4.71902,161.389
30.4,-4.67285,161.637
30.5,-4.62753,161.886
30.6,-4.58305,162.137
30.7,-4.53939,162.39
30.8,-4.49656,162.644
30.9,-4.45453,162.9
31.0,-4.41331,163.157
31.1,-4.37287,163.415
31.2,-4.33322,163.675
31.3,-4.29433,163.936
31.4,-4.25621,164.198
31.5,-4.21884,164.461
31.6,-4.18222,164.725
31.7,-4.14633,164.99
31.8,-4.11117,165.256
31.9,-4.07673,165.523
32.0,-4.04299,165.79
32.1,-4.00996,166.059
32.2,-3.97762,166.327
32.3,-3.94596,166.597
32.4,-3.91498,166.867
32.5,-3.88466,167.137
32.6,-3.85501,167.408
32.7,-3.826,167.68
32.8,-3.79764,167.951
32.9,-3.76992,168.224
33.0,-3.74283,168.496
33.1,-3.71636,168.769
33.2,-3.69051,169.042
33.3,-3.66526,169.315
33.4,-3.64062,169.588
33.5,-3.61657,169.862
33.6,-3.59311,170.136
33.7,-3.57023,170.409
33.8,-3.54793,170.683
33.9,-3.5262,170.957
34.0,-3.50503,171.231
34.1,-3.48443,171.506
34.2,-3.46437,171.78
34.3,-3.44487,172.054
34.4,-3.4259,172.328
34.5,-3.40748,172.602
34.6,-3.38959,172.876
34.7,-3.37223,173.15
34.8,-3.35539,173.424
34.9,-3.33907,173.697
35.0,-3.32326,173.971
35.1,-3.30797,174.245
35.2,-3.29319,174.518
35.3,-3.27891,174.791
35.4,-3.26513,175.064
35.5,-3.25184,175.338
35.6,-3.23905,175.61
35.7,-3.22675,175.883
35.8,-3.21494,176.156
35.9,-3.20362,176.428
36.0,-3.19278,176.7
36.1,-3.18241,176.972
36.2,-3.17253,177.244
36.3,-3.16312,177.516
36.4,-3.15419,177.788
36.5,-3.14573,178.059
36.6,-3.13774,178.33
36.7,-3.13023,178.601
36.8,-3.12318,178.872
36.9,-3.1166,179.142
37.0,-3.11049,179.413
37.1,-3.10484,179.683
37.2,-3.09966,179.953
37.3,-3.09495,-179.777
37.4,-3.09071,-179.507
37.5,-3.08693,-179.238
37.6,-3.08362,-178.969
37.7,-3.08078,-178.7
37.8,-3.07841,-178.431
37.9,-3.07651,-178.162
38.0,-3.07508,-177.893
38.1,-3.07412,-177.625
38.2,-3.07363,-177.357
38.3,-3.07363,-177.089
38.4,-3.0741,-176.821
38.5,-3.07505,-176.554
38.6,-3.07649,-176.286
38.7,-3.07841,-176.019
38.8,-3.08082,-175.752
38.9,-3.08372,-175.485
39.0,-3.08712,-175.218
39.1,-3.09102,-174.952
39.2,-3.09543,-174.686
39.3,-3.10034,-174.419
39.4,-3.10576,-174.153
39.5,-3.11171,-173.888
39.6,-3.11817,-173.622
39.7,-3.12516,-173.357
39.8,-3.13269,-173.092
39.9,-3.14075,-172.827
40.0,-3.14936,-172.562
40.1,-3.15852,-172.298
40.2,-3.16824,-172.034
40.3,-3.17852,-171.77
40.4,-3.18938,-171.506
40.5,-3.20082,-171.243
40.6,-3.21285,-170.98
40.7,-3.22547,-170.717
40.8,-3.2387,-170.455
40.9,-3.25254,-170.193
41.0,-3.26701,-169.931
41.1,-3.28211,-169.67
41.2,-3.29786,-169.409
41.3,-3.31426,-169.148
41.4,-3.33133,-168.888
41.5,-3.34907,-168.629
41.6,-3.3675,-168.37
41.7,-3.38663,-168.111
41.8,-3.40647,-167.853
41.9,-3.42704,-167.596
42.0,-3.44835,-167.339
42.1,-3.47041,-167.084
42.2,-3.49324,-166.828
42.3,-3.51684,-166.574
42.4,-3.54125,-166.321
42.5,-3.56647,-166.068
42.6,-3.59251,-165.817
42.7,-3.61941,-165.566
42.8,-3.64716,-165.317
42.9,-3.67579,-165.069
43.0,-3.70532,-164.822
43.1,-3.73576,-164.577
43.2,-3.76714,-164.333
43.3,-3.79948,-164.091
43.4,-3.83278,-163.85
43.5,-3.86709,-163.611
43.6,-3.9024,-163.375
43.7,-3.93875,-163.14
43.8,-3.97616,-162.907
43.9,-4.01466,-162.677
44.0,-4.05425,-162.449
44.1,-4.09497,-162.224
44.2,-4.13684,-162.002
44.3,-4.17988,-161.783
44.4,-4.22412,-161.567
44.5,-4.26958,-161.354
44.6,-4.31629,-161.145
44.7,-4.36427,-160.94
44.8,-4.41355,-160.74
44.9,-4.46415,-160.543
45.0,-4.5161,-160.352
45.1,-4.56942,-160.165
45.2,-4.62413,-159.984
45.3,-4.68027,-159.808
45.4,-4.73785,-159.638
45.5,-4.79691,-159.475
45.6,-4.85746,-159.319
45.7,-4.91952,-159.169
45.8,-4.98313,-159.028
45.9,-5.04829,-158.894
46.0,-5.11503,-158.769
46.1,-5.18336,-158.654
46.2,-5.2533,-158.548
46.3,-5.32487,-158.452
46.4,-5.39807,-158.367
46.5,-5.47292,-158.294
46.6,-5.54941,-158.232
46.7,-5.62755,-158.184
46.8,-5.70733,-158.15
46.9,-5.78875,-158.129
47.0,-5.87179,-158.124
47.1,-5.95643,-158.135
47.2,-6.04265,-158.164
47.3,-6.13042,-158.21
47.4,-6.21968,-158.274
47.5,-6.3104,-158.359
47.6,-6.40251,-158.465
47.7,-6.49593,-158.592
47.8,-6.59059,-158.743
47.9,-6.68639,-158.918
48.0,-6.78322,-159.117
48.1,-6.88094,-159.344
48.2,-6.97943,-159.598
48.3,-7.07851,-159.88
48.4,-7.178,-160.193
48.5,-7.27772,-160.537
48.6,-7.37743,-160.912
48.7,-7.4769,-161.321
48.8,-7.57585,-161.764
48.9,-7.674,-162.242
49.0,-7.77104,-162.756
49.1,-7.86663,-163.307
49.2,-7.96041,-163.894
49.3,-8.05199,-164.52
49.4,-8.14098,-165.183
49.5,-8.22694,-165.883
49.6,-8.30945,-166.621
49.7,-8.38805,-167.396
49.8,-8.46228,-168.207
49.9,-8.53167,-169.053
50.0,-8.59577,-169.932
50.1,-8.65413,-170.843
50.2,-8.70629,-171.784
50.3,-8.75185,-172.752
50.4,-8.79042,-173.743
50.5,-8.82165,-174.756
50.6,-8.84523,-175.787
50.7,-8.86091,-176.832
50.8,-8.86849,-177.887
50.9,-8.86783,-178.948
51.0,-8.85886,179.988
51.1,-8.84156,178.927
51.2,-8.81599,177.872
51.3,-8.78229,176.827
51.4,-8.74062,175.796
51.5,-8.69124,174.784
51.6,-8.63443,173.792
51.7,-8.57056,172.825
51.8,-8.49999,171.886
51.9,-8.42315,170.977
52.0,-8.34048,170.101
52.1,-8.25244,169.258
52.2,-8.15951,168.452
52.3,-8.06216,167.683
52.4,-7.96086,166.952
52.5,-7.85609,166.26
52.6,-7.74831,165.607
52.7,-7.63795,164.993
52.8,-7.52544,164.418
52.9,-7.41119,163.882
53.0,-7.29558,163.383
53.1,-7.17896,162.922
53.2,-7.06166,162.498
53.3,-6.944,162.109
53.4,-6.82625,161.754
53.5,-6.70868,161.432
53.6,-6.59153,161.143
53.7,-6.475,160.885
53.8,-6.35929,160.656
53.9,-6.24458,160.456
54.0,-6.131,160.283
54.1,-6.01871,160.136
54.2,-5.90782,160.014
54.3,-5.79843,159.915
54.4,-5.69062,159.839
54.5,-5.58449,159.783
54.6,-5.48008,159.748
54.7,-5.37745,159.732
54.8,-5.27665,159.733
54.9,-5.1777,159.751
55.0,-5.08064,159.786
55.1,-4.98547,159.835
55.2,-4.89222,159.898
55.3,-4.80088,159.974
55.4,-4.71146,160.063
55.5,-4.62394,160.163
55.6,-4.53833,160.274
55.7,-4.45461,160.394
55.8,-4.37276,160.525
55.9,-4.29276,160.664
56.0,-4.21459,160.811
56.1,-4.13822,160.966
56.2,-4.06364,161.128
56.3,-3.99081,161.296
56.4,-3.91971,161.47
56.5,-3.8503,161.65
56.6,-3.78256,161.834
56.7,-3.71645,162.024
56.8,-3.65194,162.218
56.9,-3.589,162.415
57.0,-3.52759,162.616
57.1,-3.46769,162.82
57.2,-3.40926,163.028
57.3,-3.35227,163.237
57.4,-3.29669,163.449
57.5,-3.24248,163.664
57.6,-3.18961,163.88
57.7,-3.13805,164.097
57.8,-3.08777,164.316
57.9,-3.03873,164.536
58.0,-2.99091,164.757
58.1,-2.94428,164.979
58.2,-2.89881,165.201
58.3,-2.85446,165.424
58.4,-2.81122,165.647
58.5,-2.76904,165.871
58.6,-2.72792,166.094
58.7,-2.6878,166.318
58.8,-2.64869,166.541
58.9,-2.61053,166.764
59.0,-2.57332,166.986
59.1,-2.53703,167.208
59.2,-2.50163,167.43
59.3,-2.46709,167.65
59.4,-2.43341,167.87
59.5,-2.40055,168.09
59.6,-2.36849,168.308
59.7,-2.33722,168.526
59.8,-2.30671,168.742
59.9,-2.27694,168.958
60.0,-2.2479,169.172
60.1,-2.21956,169.386
60.2,-2.1919,169.598
60.3,-2.16491,169.809
60.4,-2.13857,170.019
60.5,-2.11287,170.227
60.6,-2.08778,170.435
60.7,-2.0633,170.641
60.8,-2.0394,170.845
60.9,-2.01607,171.049
61.0,-1.9933,171.251
61.1,-1.97107,171.451
61.2,-1.94937,171.65
61.3,-1.92818,171.848
61.4,-1.90749,172.044
61.5,-1.88729,172.239
61.6,-1.86757,172.433
61.7,-1.84831,172.625
61.8,-1.82951,172.815
61.9,-1.81115,173.005
62.0,-1.79321,173.192
62.1,-1.7757,173.378
62.2,-1.7586,173.563
62.3,-1.74189,173.746
62.4,-1.72557,173.928
62.5,-1.70964,174.108
62.6,-1.69407,174.287
62.7,-1.67887,174.464
62.8,-1.66402,174.64
62.9,-1.64951,174.815
63.0,-1.63534,174.987
63.1,-1.6215,175.159
63.2,-1.60798,175.329
63.3,-1.59477,175.497
63.4,-1.58186,175.665
63.5,-1.56926,175.83
63.6,-1.55694,175.994
63.7,-1.54491,176.157
63.8,-1.53316,176.319
63.9,-1.52167,176.478
64.0,-1.51046,176.637
64.1,-1.4995,176.794
64.2,-1.48879,176.95
64.3,-1.47833,177.104
64.4,-1.46812,177.257
64.5,-1.45814,177.409
64.6,-1.44839,177.559
64.7,-1.43886,177.707
64.8,-1.42956,177.855
64.9,-1.42047,178.001
65.0,-1.41159,178.146
65.1,-1.40292,178.289
65.2,-1.39445,178.431
65.3,-1.38618,178.572
65.4,-1.3781,178.711
65.5,-1.37021,178.849
65.6,-1.3625,178.986
65.7,-1.35498,179.122
65.8,-1.34763,179.256
65.9,-1.34046,179.389
66.0,-1.33345,179.52
66.1,-1.32661,179.651
66.2,-1.31994,179.78
66.3,-1.31342,179.907
66.4,-1.30706,-179.966
66.5,-1.30084,-179.841
66.6,-1.29478,-179.717
66.7,-1.28887,-179.594
66.8,-1.28309,-179.472
66.9,-1.27746,-179.352
67.0,-1.27196,-179.233
67.1,-1.2666,-179.115
67.2,-1.26137,-178.998
67.3,-1.25627,-178.882
67.4,-1.25129,-178.768
67.5,-1.24644,-178.655
67.6,-1.24171,-178.543
67.7,-1.23709,-178.432
67.8,-1.23259,-178.322
67.9,-1.2282,-178.214
68.0,-1.22393,-178.106
68.1,-1.21976,-178.0
68.2,-1.2157,-177.895
68.3,-1.21175,-177.791
68.4,-1.20789,-177.689
68.5,-1.20414,-177.587
68.6,-1.20048,-177.487
68.7,-1.19692,-177.387
68.8,-1.19345,-177.289
68.9,-1.19007,-177.192
69.0,-1.18678,-177.096
69.1,-1.18358,-177.001
69.2,-1.18046,-176.908
69.3,-1.17743,-176.815
69.4,-1.17448,-176.724
69.5,-1.17161,-176.633
69.6,-1.16882,-176.544
69.7,-1.1661,-176.456
69.8,-1.16346,-176.369
69.9,-1.16089,-176.283
70.0,-1.15839,-176.198
70.1,-1.15596,-176.114
70.2,-1.1536,-176.032
70.3,-1.1513,-175.95
70.4,-1.14907,-175.87
70.5,-1.1469,-175.79
70.6,-1.14479,-175.712
70.7,-1.14274,-175.635
70.8,-1.14075,-175.558
70.9,-1.13881,-175.483
71.0,-1.13693,-175.409
71.1,-1.1351,-175.336
71.2,-1.13332,-175.264
71.3,-1.13159,-175.194
71.4,-1.12991,-175.124
71.5,-1.12828,-175.055
71.6,-1.12669,-174.988
71.7,-1.12514,-174.921
71.8,-1.12364,-174.856
71.9,-1.12217,-174.791
72.0,-1.12075,-174.728
72.1,-1.11936,-174.666
72.2,-1.11801,-174.605
72.3,-1.11669,-174.544
72.4,-1.1154,-174.485
72.5,-1.11415,-174.428
72.6,-1.11292,-174.371
72.7,-1.11173,-174.315
72.8,-1.11056,-174.26
72.9,-1.10941,-174.206
73.0,-1.10829,-174.154
73.1,-1.10719,-174.102
73.2,-1.10611,-174.052
73.3,-1.10504,-174.002
73.4,-1.104,-173.954
73.5,-1.10297,-173.907
73.6,-1.10196,-173.861
73.7,-1.10095,-173.816
73.8,-1.09996,-173.772
73.9,-1.09898,-173.729
74.0,-1.09801,-173.687
74.1,-1.09704,-173.646
74.2,-1.09607,-173.606
74.3,-1.09511,-173.568
74.4,-1.09415,-173.53
74.5,-1.09319,-173.494
74.6,-1.09223,-173.458
74.7,-1.09126,-173.424
74.8,-1.09029,-173.391
74.9,-1.08931,-173.359
75.0,-1.08833,-173.328
75.1,-1.08733,-173.298
75.2,-1.08632,-173.269
75.3,-1.08529,-173.241
75.4,-1.08425,-173.215
75.5,-1.0832,-173.189
75.6,-1.08212,-173.165
75.7,-1.08102,-173.141
75.8,-1.07991,-173.119
75.9,-1.07876,-173.098
76.0,-1.07759,-173.078
76.1,-1.07639,-173.059
76.2,-1.07517,-173.041
76.3,-1.07391,-173.025
76.4,-1.07261,-173.009
76.5,-1.07128,-172.994
76.6,-1.06992,-172.981
76.7,-1.06851,-172.969
76.8,-1.06707,-172.957
76.9,-1.06558,-172.947
77.0,-1.06405,-172.938
77.1,-1.06247,-172.931
77.2,-1.06084,-172.924
77.3,-1.05916,-172.918
77.4,-1.05743,-172.914
77.5,-1.05565,-172.91
77.6,-1.05381,-172.908
77.7,-1.05191,-172.907
77.8,-1.04995,-172.907
77.9,-1.04793,-172.908
78.0,-1.04585,-172.91
78.1,-1.0437,-172.913
78.2,-1.04148,-172.917
78.3,-1.03919,-172.923
78.4,-1.03683,-172.929
78.5,-1.0344,-172.937
78.6,-1.03189,-172.946
78.7,-1.02931,-172.956
78.8,-1.02665,-172.967
78.9,-1.0239,-172.979
79.0,-1.02107,-172.992
79.1,-1.01816,-173.006
79.2,-1.01516,-173.021
79.3,-1.01207,-173.038
79.4,-1.00889,-173.055
79.5,-1.00562,-173.074
79.6,-1.00225,-173.094
79.7,-0.998791,-173.115
79.8,-0.99523,-173.137
79.9,-0.99157,-173.16
80.0,-0.987808,-173.184
80.1,-0.983942,-173.209
80.2,-0.979972,-173.235
80.3,-0.975894,-173.262
80.4,-0.971708,-173.291
80.5,-0.967412,-173.32
80.6,-0.963004,-173.35
80.7,-0.958483,-173.382
80.8,-0.953846,-173.414
80.9,-0.949092,-173.448
81.0,-0.944221,-173.483
81.1,-0.939229,-173.518
81.2,-0.934117,-173.555
81.3,-0.928882,-173.593
81.4,-0.923522,-173.631
81.5,-0.918038,-173.671
81.6,-0.912427,-173.712
81.7,-0.906688,-173.754
81.8,-0.90082,-173.796
81.9,-0.894821,-173.84
82.0,-0.888692,-173.885
82.1,-0.882429,-173.93
82.2,-0.876033,-173.977
82.3,-0.869503,-174.025
82.4,-0.862838,-174.073
82.5,-0.856036,-174.123
82.6,-0.849097,-174.173
82.7,-0.84202,-174.225
82.8,-0.834805,-174.277
82.9,-0.827451,-174.33
83.0,-0.819957,-174.385
83.1,-0.812323,-174.44
83.2,-0.804549,-174.496
83.3,-0.796633,-174.553
83.4,-0.788576,-174.61
83.5,-0.780378,-174.669
83.6,-0.772039,-174.729
83.7,-0.763558,-174.789
83.8,-0.754935,-174.85
83.9,-0.746171,-174.913
84.0,-0.737265,-174.976
84.1,-0.728218,-175.039
84.2,-0.71903,-175.104
84.3,-0.709702,-175.17
84.4,-0.700234,-175.236
84.5,-0.690626,-175.303
84.6,-0.68088,-175.371
84.7,-0.670995,-175.44
84.8,-0.660973,-175.509
84.9,-0.650815,-175.579
85.0,-0.640522,-175.65
85.1,-0.630094,-175.722
85.2,-0.619533,-175.795
85.3,-0.60884,-175.868
85.4,-0.598016,-175.942
