Angle (deg),Magnitude (dB),Phase (deg)
0.0,-8.03466,177.593
0.1,-8.03465,177.593
0.2,-8.03461,177.593
0.3,-8.03455,177.593
0.4,-8.03447,177.593
0.5,-8.03436,177.593
0.6,-8.03423,177.593
0.7,-8.03407,177.593
0.8,-8.03389,177.593
0.9,-8.03369,177.594
1.0,-8.03346,177.594
1.1,-8.03321,177.594
1.2,-8.03294,177.594
1.3,-8.03264,177.594
1.4,-8.03231,177.594
1.5,-8.03197,177.595
1.6,-8.03159,177.595
1.7,-8.0312,177.595
1.8,-8.03078,177.595
1.9,-8.03034,177.596
2.0,-8.02987,177.596
2.1,-8.02938,177.596
2.2,-8.02887,177.597
2.3,-8.02833,177.597
2.4,-8.02777,177.597
2.5,-8.02718,177.598
2.6,-8.02657,177.598
2.7,-8.02594,177.599
2.8,-8.02528,177.599
2.9,-8.0246,177.6
3.0,-8.02389,177.6
3.1,-8.02316,177.6
3.2,-8.02241,177.601
3.3,-8.02164,177.601
3.4,-8.02083,177.602
3.5,-8.02001,177.603
3.6,-8.01916,177.603
3.7,-8.01829,177.604
3.8,-8.0174,177.604
3.9,-8.01648,177.605
4.0,-8.01554,177.605
4.1,-8.01457,177.606
4.2,-8.01358,177.607
4.3,-8.01257,177.607
4.4,-8.01154,177.608
4.5,-8.01048,177.609
4.6,-8.00939,177.61
4.7,-8.00829,177.61
4.8,-8.00716,177.611
4.9,-8.006,177.612
5.0,-8.00483,177.613
5.1,-8.00362,177.613
5.2,-8.0024,177.614
5.3,-8.00115,177.615
5.4,-7.99988,177.616
5.5,-7.99859,177.617
5.6,-7.99727,177.618
5.7,-7.99593,177.619
5.8,-7.99457,177.62
5.9,-7.99318,177.621
6.0,-7.99177,177.622
6.1,-7.99034,177.623
6.2,-7.98888,177.624
6.3,-7.98741,177.625
6.4,-7.9859,177.626
6.5,-7.98438,177.627
6.6,-7.98283,177.628
6.7,-7.98126,177.629
6.8,-7.97967,177.63
6.9,-7.97805,177.631
7.0,-7.97641,177.632
7.1,-7.97475,177.633
7.2,-7.97306,177.635
7.3,-7.97135,177.636
7.4,-7.96962,177.637
7.5,-7.96787,177.638
7.6,-7.96609,177.639
7.7,-7.9643,177.641
7.8,-7.96248,177.642
7.9,-7.96063,177.643
8.0,-7.95877,177.645
8.1,-7.95688,177.646
8.2,-7.95497,177.647
8.3,-7.95303,177.649
8.4,-7.95108,177.65
8.5,-7.9491,177.652
8.6,-7.9471,177.653
8.7,-7.94508,177.654
8.8,-7.94303,177.656
8.9,-7.94097,177.657
9.0,-7.93888,177.659
9.1,-7.93677,177.66
9.2,-7.93464,177.662
9.3,-7.93248,177.664
9.4,-7.9303,177.665
9.5,-7.92811,177.667
9.6,-7.92589,177.668
9.7,-7.92364,177.67
9.8,-7.92138,177.672
9.9,-7.9191,177.673
10.0,-7.91679,177.675
10.1,-7.91446,177.677
10.2,-7.91211,177.678
10.3,-7.90974,177.68
10.4,-7.90735,177.682
10.5,-7.90493,177.684
10.6,-7.9025,177.686
10.7,-7.90004,177.687
10.8,-7.89756,177.689
10.9,-7.89506,177.691
11.0,-7.89254,177.693
11.1,-7.89,177.695
11.2,-7.88744,177.697
11.3,-7.88485,177.699
11.4,-7.88225,177.701
11.5,-7.87963,177.703
11.6,-7.87698,177.704
11.7,-7.87431,177.706
11.8,-7.87163,177.708
11.9,-7.86892,177.711
12.0,-7.86619,177.713
12.1,-7.86344,177.715
12.2,-7.86067,177.717
12.3,-7.85788,177.719
12.4,-7.85507,177.721
12.5,-7.85224,177.723
12.6,-7.84939,177.725
12.7,-7.84651,177.727
12.8,-7.84362,177.729
12.9,-7.84071,177.732
13.0,-7.83778,177.734
13.1,-7.83483,177.736
13.2,-7.83185,177.738
13.3,-7.82886,177.74
13.4,-7.82585,177.743
13.5,-7.82282,177.745
13.6,-7.81977,177.747
13.7,-7.8167,177.749
13.8,-7.8136,177.752
13.9,-7.81049,177.754
14.0,-7.80736,177.756
14.1,-7.80421,177.759
14.2,-7.80104,177.761
14.3,-7.79786,177.763
14.4,-7.79465,177.766
14.5,-7.79142,177.768
14.6,-7.78817,177.77
14.7,-7.78491,177.773
14.8,-7.78162,177.775
14.9,-7.77832,177.777
15.0,-7.77499,177.78
15.1,-7.77165,177.782
15.2,-7.76829,177.785
15.3,-7.76491,177.787
15.4,-7.76151,177.789
15.5,-7.75809,177.792
15.6,-7.75465,177.794
15.7,-7.75119,177.797
15.8,-7.74772,177.799
15.9,-7.74422,177.802
16.0,-7.74071,177.804
16.1,-7.73718,177.807
16.2,-7.73362,177.809
16.3,-7.73006,177.811
16.4,-7.72647,177.814
16.5,-7.72286,177.816
16.6,-7.71923,177.819
16.7,-7.71559,177.821
16.8,-7.71193,177.824
16.9,-7.70825,177.826
17.0,-7.70455,177.829
17.1,-7.70083,177.831
17.2,-7.69709,177.834
17.3,-7.69333,177.836
17.4,-7.68956,177.838
17.5,-7.68577,177.841
17.6,-7.68196,177.843
17.7,-7.67813,177.846
17.8,-7.67428,177.848
17.9,-7.67041,177.851
18.0,-7.66653,177.853
18.1,-7.66262,177.855
18.2,-7.6587,177.858
18.3,-7.65476,177.86
18.4,-7.6508,177.862
18.5,-7.64682,177.865
18.6,-7.64283,177.867
18.7,-7.63881,177.869
18.8,-7.63478,177.872
18.9,-7.63073,177.874
19.0,-7.62666,177.876
19.1,-7.62257,177.879
19.2,-7.61846,177.881
19.3,-7.61433,177.883
19.4,-7.61019,177.885
19.5,-7.60602,177.888
19.6,-7.60184,177.89
19.7,-7.59764,177.892
19.8,-7.59342,177.894
19.9,-7.58918,177.896
20.0,-7.58492,177.898
20.1,-7.58065,177.901
20.2,-7.57635,177.903
20.3,-7.57204,177.905
20.4,-7.5677,177.907
20.5,-7.56335,177.909
20.6,-7.55898,177.911
20.7,-7.55459,177.913
20.8,-7.55018,177.915
20.9,-7.54575,177.917
21.0,-7.5413,177.918
21.1,-7.53683,177.92
21.2,-7.53234,177.922
21.3,-7.52783,177.924
21.4,-7.5233,177.926
21.5,-7.51875,177.927
21.6,-7.51418,177.929
21.7,-7.5096,177.931
21.8,-7.50499,177.933
21.9,-7.50036,177.934
22.0,-7.49571,177.936
22.1,-7.49104,177.937
22.2,-7.48635,177.939
22.3,-7.48164,177.94
22.4,-7.47691,177.942
22.5,-7.47216,177.943
22.6,-7.46739,177.945
22.7,-7.46259,177.946
22.8,-7.45778,177.947
22.9,-7.45294,177.949
23.0,-7.44809,177.95
23.1,-7.44321,177.951
23.2,-7.43831,177.952
23.3,-7.43339,177.954
23.4,-7.42844,177.955
23.5,-7.42348,177.956
23.6,-7.41849,177.957
23.7,-7.41348,177.958
23.8,-7.40845,177.959
23.9,-7.4034,177.96
24.0,-7.39832,177.961
24.1,-7.39322,177.962
24.2,-7.3881,177.962
24.3,-7.38295,177.963
24.4,-7.37778,177.964
24.5,-7.37259,177.965
24.6,-7.36738,177.965
24.7,-7.36214,177.966
24.8,-7.35688,177.967
24.9,-7.35159,177.967
25.0,-7.34628,177.968
25.1,-7.34095,177.968
25.2,-7.33559,177.969
25.3,-7.33021,177.969
25.4,-7.3248,177.969
25.5,-7.31937,177.97
25.6,-7.31391,177.97
25.7,-7.30843,177.97
25.8,-7.30292,177.97
25.9,-7.29739,177.971
26.0,-7.29184,177.971
26.1,-7.28625,177.971
26.2,-7.28064,177.971
26.3,-7.27501,177.971
26.4,-7.26935,177.971
26.5,-7.26366,177.971
26.6,-7.25795,177.971
26.7,-7.25221,177.971
26.8,-7.24645,177.971
26.9,-7.24065,177.971
27.0,-7.23483,177.97
27.1,-7.22899,177.97
27.2,-7.22311,177.97
27.3,-7.21721,177.97
27.4,-7.21129,177.969
27.5,-7.20533,177.969
27.6,-7.19935,177.969
27.7,-7.19334,177.968
27.8,-7.1873,177.968
27.9,-7.18123,177.967
28.0,-7.17514,177.967
28.1,-7.16901,177.966
28.2,-7.16286,177.966
28.3,-7.15668,177.965
28.4,-7.15047,177.965
28.5,-7.14424,177.964
28.6,-7.13797,177.964
28.7,-7.13168,177.963
28.8,-7.12535,177.962
28.9,-7.119,177.962
29.0,-7.11262,177.961
29.1,-7.1062,177.961
29.2,-7.09976,177.96
29.3,-7.09329,177.959
29.4,-7.08679,177.958
29.5,-7.08027,177.958
29.6,-7.07371,177.957
29.7,-7.06712,177.956
29.8,-7.0605,177.956
29.9,-7.05385,177.955
30.0,-7.04718,177.954
30.1,-7.04047,177.953
30.2,-7.03373,177.953
30.3,-7.02696,177.952
30.4,-7.02017,177.951
30.5,-7.01334,177.951
30.6,-7.00648,177.95
30.7,-6.99959,177.949
30.8,-6.99268,177.948
30.9,-6.98573,177.948
31.0,-6.97875,177.947
31.1,-6.97175,177.946
31.2,-6.96471,177.946
31.3,-6.95764,177.945
31.4,-6.95055,177.945
31.5,-6.94342,177.944
31.6,-6.93626,177.943
31.7,-6.92908,177.943
31.8,-6.92186,177.942
31.9,-6.91461,177.942
32.0,-6.90734,177.941
32.1,-6.90003,177.941
32.2,-6.8927,177.94
32.3,-6.88533,177.94
32.4,-6.87794,177.94
32.5,-6.87052,177.939
32.6,-6.86307,177.939
32.7,-6.85559,177.939
32.8,-6.84808,177.939
32.9,-6.84054,177.938
33.0,-6.83297,177.938
33.1,-6.82538,177.938
33.2,-6.81775,177.938
33.3,-6.8101,177.938
33.4,-6.80242,177.938
33.5,-6.79471,177.938
33.6,-6.78697,177.938
33.7,-6.77921,177.938
33.8,-6.77142,177.939
33.9,-6.7636,177.939
34.0,-6.75575,177.939
34.1,-6.74788,177.94
34.2,-6.73998,177.94
34.3,-6.73206,177.941
34.4,-6.7241,177.941
34.5,-6.71613,177.942
34.6,-6.70812,177.942
34.7,-6.70009,177.943
34.8,-6.69203,177.944
34.9,-6.68395,177.945
35.0,-6.67585,177.946
35.1,-6.66771,177.947
35.2,-6.65956,177.948
35.3,-6.65138,177.949
35.4,-6.64317,177.95
35.5,-6.63494,177.951
35.6,-6.62669,177.952
35.7,-6.61842,177.954
35.8,-6.61012,177.955
35.9,-6.6018,177.957
36.0,-6.59345,177.958
36.1,-6.58508,177.96
36.2,-6.57669,177.962
36.3,-6.56828,177.963
36.4,-6.55985,177.965
36.5,-6.55139,177.967
36.6,-6.54292,177.969
36.7,-6.53442,177.971
36.8,-6.52591,177.973
36.9,-6.51737,177.975
37.0,-6.50881,177.978
37.1,-6.50023,177.98
37.2,-6.49164,177.982
37.3,-6.48302,177.985
37.4,-6.47439,177.987
37.5,-6.46573,177.99
37.6,-6.45706,177.993
37.7,-6.44837,177.995
37.8,-6.43966,177.998
37.9,-6.43093,178.001
38.0,-6.42219,178.004
38.1,-6.41343,178.007
38.2,-6.40465,178.01
38.3,-6.39586,178.013
38.4,-6.38705,178.017
38.5,-6.37822,178.02
38.6,-6.36938,178.023
38.7,-6.36052,178.027
38.8,-6.35165,178.03
38.9,-6.34276,178.034
39.0,-6.33386,178.037
39.1,-6.32494,178.041
39.2,-6.31601,178.045
39.3,-6.30706,178.048
39.4,-6.2981,178.052
39.5,-6.28913,178.056
39.6,-6.28014,178.06
39.7,-6.27114,178.064
39.8,-6.26213,178.068
39.9,-6.2531,178.072
40.0,-6.24406,178.076
40.1,-6.23501,178.081
40.2,-6.22595,178.085
40.3,-6.21687,178.089
40.4,-6.20779,178.094
40.5,-6.19869,178.098
40.6,-6.18958,178.102
40.7,-6.18045,178.107
40.8,-6.17132,178.111
40.9,-6.16217,178.116
41.0,-6.15302,178.121
41.1,-6.14385,178.125
41.2,-6.13468,178.13
41.3,-6.12549,178.135
41.4,-6.11629,178.139
41.5,-6.10708,178.144
41.6,-6.09786,178.149
41.7,-6.08863,178.154
41.8,-6.07939,178.158
41.9,-6.07015,178.163
42.0,-6.06089,178.168
42.1,-6.05162,178.173
42.2,-6.04234,178.178
42.3,-6.03305,178.183
42.4,-6.02375,178.188
42.5,-6.01445,178.193
42.6,-6.00513,178.198
42.7,-5.9958,178.203
42.8,-5.98647,178.208
42.9,-5.97712,178.213
43.0,-5.96776,178.218
43.1,-5.9584,178.223
43.2,-5.94903,178.228
43.3,-5.93964,178.232
43.4,-5.93025,178.237
43.5,-5.92084,178.242
43.6,-5.91143,178.247
43.7,-5.90201,178.252
43.8,-5.89258,178.257
43.9,-5.88313,178.262
44.0,-5.87368,178.267
44.1,-5.86422,178.272
44.2,-5.85475,178.277
44.3,-5.84526,178.282
44.4,-5.83577,178.287
44.5,-5.82627,178.291
44.6,-5.81675,178.296
44.7,-5.80723,178.301
44.8,-5.79769,178.306
44.9,-5.78815,178.31
45.0,-5.77859,178.315
45.1,-5.76902,178.32
45.2,-5.75944,178.324
45.3,-5.74985,178.329
45.4,-5.74025,178.334
45.5,-5.73064,178.338
45.6,-5.72101,178.343
45.7,-5.71137,178.347
45.8,-5.70173,178.351
45.9,-5.69206,178.356
46.0,-5.68239,178.36
46.1,-5.6727,178.364
46.2,-5.663,178.369
46.3,-5.65329,178.373
46.4,-5.64356,178.377
46.5,-5.63382,178.381
46.6,-5.62407,178.385
46.7,-5.6143,178.389
46.8,-5.60452,178.393
46.9,-5.59472,178.397
47.0,-5.58491,178.401
47.1,-5.57508,178.405
47.2,-5.56524,178.409
47.3,-5.55539,178.412
47.4,-5.54552,178.416
47.5,-5.53563,178.42
47.6,-5.52573,178.423
47.7,-5.51581,178.427
47.8,-5.50588,178.43
47.9,-5.49592,178.434
48.0,-5.48596,178.437
48.1,-5.47597,178.44
48.2,-5.46597,178.444
48.3,-5.45595,178.447
48.4,-5.44591,178.45
48.5,-5.43586,178.453
48.6,-5.42579,178.456
48.7,-5.4157,178.459
48.8,-5.40559,178.462
48.9,-5.39546,178.465
49.0,-5.38531,178.468
49.1,-5.37515,178.47
49.2,-5.36496,178.473
49.3,-5.35476,178.476
49.4,-5.34453,178.479
49.5,-5.33429,178.481
49.6,-5.32402,178.484
49.7,-5.31374,178.486
49.8,-5.30343,178.489
49.9,-5.29311,178.491
50.0,-5.28276,178.493
50.1,-5.27239,178.496
50.2,-5.26201,178.498
50.3,-5.2516,178.5
50.4,-5.24116,178.502
50.5,-5.23071,178.504
50.6,-5.22024,178.507
50.7,-5.20974,178.509
50.8,-5.19922,178.511
50.9,-5.18868,178.513
51.0,-5.17811,178.515
51.1,-5.16753,178.516
51.2,-5.15692,178.518
51.3,-5.14628,178.52
51.4,-5.13563,178.522
51.5,-5.12495,178.524
51.6,-5.11425,178.525
51.7,-5.10353,178.527
51.8,-5.09278,178.529
51.9,-5.08201,178.531
52.0,-5.07121,178.532
52.1,-5.06039,178.534
52.2,-5.04955,178.535
52.3,-5.03868,178.537
52.4,-5.0278,178.538
52.5,-5.01688,178.54
52.6,-5.00594,178.542
52.7,-4.99498,178.543
52.8,-4.984,178.544
52.9,-4.97299,178.546
53.0,-4.96196,178.547
53.1,-4.9509,178.549
53.2,-4.93982,178.55
53.3,-4.92871,178.552
53.4,-4.91758,178.553
53.5,-4.90643,178.555
53.6,-4.89525,178.556
53.7,-4.88405,178.557
53.8,-4.87283,178.559
53.9,-4.86158,178.56
54.0,-4.85031,178.562
54.1,-4.83901,178.563
54.2,-4.82769,178.564
54.3,-4.81634,178.566
54.4,-4.80498,178.567
54.5,-4.79359,178.569
54.6,-4.78217,178.57
54.7,-4.77073,178.572
54.8,-4.75927,178.573
54.9,-4.74779,178.575
55.0,-4.73628,178.576
55.1,-4.72475,178.578
55.2,-4.71319,178.579
55.3,-4.70162,178.581
55.4,-4.69002,178.582
55.5,-4.67839,178.584
55.6,-4.66675,178.585
55.7,-4.65508,178.587
55.8,-4.64339,178.589
55.9,-4.63168,178.59
56.0,-4.61995,178.592
56.1,-4.60819,178.594
56.2,-4.59642,178.596
56.3,-4.58462,178.597
56.4,-4.5728,178.599
56.5,-4.56096,178.601
56.6,-4.5491,178.603
56.7,-4.53721,178.605
56.8,-4.52531,178.607
56.9,-4.51339,178.609
57.0,-4.50144,178.611
57.1,-4.48948,178.613
57.2,-4.47749,178.615
57.3,-4.46549,178.617
57.4,-4.45346,178.619
57.5,-4.44142,178.621
57.6,-4.42936,178.623
57.7,-4.41727,178.626
57.8,-4.40517,178.628
57.9,-4.39305,178.63
58.0,-4.38092,178.633
58.1,-4.36876,178.635
58.2,-4.35658,178.638
58.3,-4.34439,178.64
58.4,-4.33218,178.643
58.5,-4.31995,178.645
58.6,-4.30771,178.648
58.7,-4.29544,178.651
58.8,-4.28316,178.653
58.9,-4.27087,178.656
59.0,-4.25855,178.659
59.1,-4.24622,178.662
59.2,-4.23388,178.665
59.3,-4.22151,178.667
59.4,-4.20914,178.67
59.5,-4.19674,178.673
59.6,-4.18433,178.676
59.7,-4.17191,178.68
59.8,-4.15947,178.683
59.9,-4.14701,178.686
60.0,-4.13454,178.689
60.1,-4.12206,178.692
60.2,-4.10956,178.696
60.3,-4.09705,178.699
60.4,-4.08452,178.702
60.5,-4.07198,178.706
60.6,-4.05942,178.709
60.7,-4.04685,178.713
60.8,-4.03427,178.716
60.9,-4.02168,178.72
61.0,-4.00907,178.724
61.1,-3.99645,178.727
61.2,-3.98381,178.731
61.3,-3.97117,178.735
61.4,-3.95851,178.738
61.5,-3.94584,178.742
61.6,-3.93315,178.746
61.7,-3.92046,178.75
61.8,-3.90775,178.754
61.9,-3.89503,178.758
62.0,-3.8823,178.762
62.1,-3.86956,178.766
62.2,-3.85681,178.77
62.3,-3.84404,178.774
62.4,-3.83127,178.778
62.5,-3.81848,178.782
62.6,-3.80568,178.786
62.7,-3.79287,178.791
62.8,-3.78005,178.795
62.9,-3.76723,178.799
63.0,-3.75439,178.804
63.1,-3.74154,178.808
63.2,-3.72868,178.812
63.3,-3.71581,178.817
63.4,-3.70293,178.821
63.5,-3.69004,178.825
63.6,-3.67714,178.83
63.7,-3.66423,178.834
63.8,-3.65131,178.839
63.9,-3.63838,178.843
64.0,-3.62544,178.848
64.1,-3.61249,178.853
64.2,-3.59954,178.857
64.3,-3.58657,178.862
64.4,-3.57359,178.866
64.5,-3.56061,178.871
64.6,-3.54762,178.876
64.7,-3.53461,178.88
64.8,-3.5216,178.885
64.9,-3.50858,178.89
65.0,-3.49555,178.895
65.1,-3.48252,178.899
65.2,-3.46947,178.904
65.3,-3.45641,178.909
65.4,-3.44335,178.914
65.5,-3.43028,178.918
65.6,-3.4172,178.923
65.7,-3.40411,178.928
65.8,-3.39101,178.933
65.9,-3.3779,178.938
66.0,-3.36479,178.943
66.1,-3.35166,178.947
66.2,-3.33853,178.952
66.3,-3.32539,178.957
66.4,-3.31224,178.962
66.5,-3.29909,178.967
66.6,-3.28592,178.972
66.7,-3.27275,178.977
66.8,-3.25957,178.982
66.9,-3.24638,178.987
67.0,-3.23318,178.991
67.1,-3.21997,178.996
67.2,-3.20676,179.001
67.3,-3.19353,179.006
67.4,-3.1803,179.011
67.5,-3.16706,179.016
67.6,-3.15382,179.021
67.7,-3.14056,179.026
67.8,-3.1273,179.031
67.9,-3.11402,179.036
68.0,-3.10074,179.041
68.1,-3.08745,179.045
68.2,-3.07416,179.05
68.3,-3.06085,179.055
68.4,-3.04754,179.06
68.5,-3.03422,179.065
68.6,-3.02089,179.07
68.7,-3.00755,179.075
68.8,-2.9942,179.08
68.9,-2.98085,179.085
69.0,-2.96748,179.089
69.1,-2.95411,179.094
69.2,-2.94073,179.099
69.3,-2.92734,179.104
69.4,-2.91395,179.109
69.5,-2.90054,179.114
69.6,-2.88713,179.119
69.7,-2.87371,179.123
69.8,-2.86028,179.128
69.9,-2.84684,179.133
70.0,-2.83339,179.138
70.1,-2.81994,179.143
70.2,-2.80648,179.147
70.3,-2.793,179.152
70.4,-2.77952,179.157
70.5,-2.76603,179.162
70.6,-2.75254,179.166
70.7,-2.73903,179.171
70.8,-2.72552,179.176
70.9,-2.71199,179.181
71.0,-2.69846,179.185
71.1,-2.68492,179.19
71.2,-2.67138,179.195
71.3,-2.65782,179.199
71.4,-2.64425,179.204
71.5,-2.63068,179.209
71.6,-2.6171,179.214
71.7,-2.60351,179.218
71.8,-2.58991,179.223
71.9,-2.5763,179.227
72.0,-2.56268,179.232
72.1,-2.54906,179.237
72.2,-2.53542,179.241
72.3,-2.52178,179.246
72.4,-2.50813,179.25
72.5,-2.49447,179.255
72.6,-2.4808,179.26
72.7,-2.46712,179.264
72.8,-2.45344,179.269
72.9,-2.43974,179.273
73.0,-2.42604,179.278
73.1,-2.41233,179.282
73.2,-2.39861,179.287
73.3,-2.38488,179.291
73.4,-2.37114,179.296
73.5,-2.3574,179.3
73.6,-2.34364,179.305
73.7,-2.32988,179.309
73.8,-2.31611,179.314
73.9,-2.30233,179.318
74.0,-2.28854,179.323
74.1,-2.27474,179.327
74.2,-2.26094,179.331
74.3,-2.24713,179.336
74.4,-2.2333,179.34
74.5,-2.21947,179.345
74.6,-2.20563,179.349
74.7,-2.19179,179.353
74.8,-2.17793,179.358
74.9,-2.16407,179.362
75.0,-2.15019,179.366
75.1,-2.13631,179.371
75.2,-2.12242,179.375
75.3,-2.10853,179.38
75.4,-2.09462,179.384
75.5,-2.08071,179.388
75.6,-2.06678,179.393
75.7,-2.05285,179.397
75.8,-2.03891,179.401
75.9,-2.02497,179.405
76.0,-2.01101,179.41
76.1,-1.99705,179.414
76.2,-1.98308,179.418
76.3,-1.9691,179.423
76.4,-1.95511,179.427
76.5,-1.94112,179.431
76.6,-1.92711,179.435
76.7,-1.9131,179.44
76.8,-1.89908,179.444
76.9,-1.88506,179.448
77.0,-1.87102,179.452
77.1,-1.85698,179.457
77.2,-1.84293,179.461
77.3,-1.82887,179.465
77.4,-1.81481,179.469
77.5,-1.80074,179.474
77.6,-1.78666,179.478
77.7,-1.77257,179.482
77.8,-1.75847,179.486
77.9,-1.74437,179.49
78.0,-1.73026,179.495
78.1,-1.71614,179.499
78.2,-1.70202,179.503
78.3,-1.68789,179.507
78.4,-1.67375,179.511
78.5,-1.6596,179.516
78.6,-1.64545,179.52
78.7,-1.63129,179.524
78.8,-1.61712,179.528
78.9,-1.60295,179.532
79.0,-1.58877,179.536
79.1,-1.57458,179.541
79.2,-1.56038,179.545
79.3,-1.54618,179.549
79.4,-1.53197,179.553
79.5,-1.51776,179.557
79.6,-1.50354,179.562
79.7,-1.48931,179.566
79.8,-1.47507,179.57
79.9,-1.46083,179.574
80.0,-1.44659,179.578
80.1,-1.43233,179.582
80.2,-1.41807,179.587
80.3,-1.40381,179.591
80.4,-1.38953,179.595
80.5,-1.37526,179.599
80.6,-1.36097,179.603
80.7,-1.34668,179.607
80.8,-1.33239,179.612
80.9,-1.31808,179.616
81.0,-1.30378,179.62
81.1,-1.28946,179.624
81.2,-1.27514,179.628
81.3,-1.26082,179.633
81.4,-1.24649,179.637
81.5,-1.23215,179.641
81.6,-1.21781,179.645
81.7,-1.20346,179.649
81.8,-1.18911,179.653
81.9,-1.17475,179.658
82.0,-1.16039,179.662
82.1,-1.14602,179.666
82.2,-1.13165,179.67
82.3,-1.11727,179.674
82.4,-1.10289,179.678
82.5,-1.0885,179.683
82.6,-1.07411,179.687
82.7,-1.05971,179.691
82.8,-1.04531,179.695
82.9,-1.0309,179.699
83.0,-1.01649,179.704
83.1,-1.00207,179.708
83.2,-0.987651,179.712
83.3,-0.973226,179.716
83.4,-0.958797,179.72
83.5,-0.944363,179.725
83.6,-0.929925,179.729
83.7,-0.915483,179.733
83.8,-0.901036,179.737
83.9,-0.886586,179.741
84.0,-0.872132,179.746
84.1,-0.857674,179.75
84.2,-0.843212,179.754
84.3,-0.828746,179.758
84.4,-0.814276,179.762
84.5,-0.799803,179.767
84.6,-0.785326,179.771
84.7,-0.770846,179.775
84.8,-0.756362,179.779
84.9,-0.741875,179.783
85.0,-0.727384,179.788
85.1,-0.71289,179.792
85.2,-0.698393,179.796
85.3,-0.683893,179.8
85.4,-0.66939,179.805
85.5,-0.654883,179.809
85.6,-0.640374,179.813
85.7,-0.625862,179.817
85.8,-0.611347,179.822
85.9,-0.596829,179.826
86.0,-0.582308,179.83
86.1,-0.567785,179.834
86.2,-0.553259,179.838
86.3,-0.538731,179.843
86.4,-0.5242,179.847
86.5,-0.509667,179.851
86.6,-0.495132,179.855
86.7,-0.480594,179.86
86.8,-0.466054,179.864
86.9,-0.451512,179.868
87.0,-0.436968,179.872
87.1,-0.422422,179.877
87.2,-0.407874,179.881
87.3,-0.393324,179.885
87.4,-0.378772,179.889
87.5,-0.364218,179.894
87.6,-0.349663,179.898
