Angle (deg),Magnitude (dB),Phase (deg)
0.0,-5.13741,141.205
0.1,-5.1374,141.205
0.2,-5.13738,141.205
0.3,-5.13733,141.206
0.4,-5.13727,141.206
0.5,-5.1372,141.207
0.6,-5.13711,141.207
0.7,-5.137,141.208
0.8,-5.13687,141.209
0.9,-5.13672,141.21
1.0,-5.13656,141.211
1.1,-5.13639,141.212
1.2,-5.13619,141.213
1.3,-5.13598,141.215
1.4,-5.13575,141.216
1.5,-5.13551,141.218
1.6,-5.13524,141.219
1.7,-5.13496,141.221
1.8,-5.13467,141.223
1.9,-5.13436,141.225
2.0,-5.13403,141.227
2.1,-5.13368,141.23
2.2,-5.13332,141.232
2.3,-5.13294,141.235
2.4,-5.13254,141.237
2.5,-5.13212,141.24
2.6,-5.13169,141.243
2.7,-5.13124,141.246
2.8,-5.13078,141.249
2.9,-5.1303,141.252
3.0,-5.1298,141.255
3.1,-5.12928,141.259
3.2,-5.12875,141.262
3.3,-5.1282,141.266
3.4,-5.12763,141.27
3.5,-5.12705,141.274
3.6,-5.12645,141.277
3.7,-5.12583,141.282
3.8,-5.1252,141.286
3.9,-5.12455,141.29
4.0,-5.12388,141.294
4.1,-5.1232,141.299
4.2,-5.1225,141.304
4.3,-5.12178,141.308
4.4,-5.12104,141.313
4.5,-5.12029,141.318
4.6,-5.11952,141.323
4.7,-5.11874,141.328
4.8,-5.11794,141.334
4.9,-5.11712,141.339
5.0,-5.11628,141.345
5.1,-5.11543,141.35
5.2,-5.11456,141.356
5.3,-5.11367,141.362
5.4,-5.11277,141.368
5.5,-5.11185,141.374
5.6,-5.11091,141.38
5.7,-5.10996,141.386
5.8,-5.10899,141.393
5.9,-5.108,141.399
6.0,-5.107,141.406
6.1,-5.10598,141.413
6.2,-5.10494,141.42
6.3,-5.10389,141.427
6.4,-5.10281,141.434
6.5,-5.10173,141.441
6.6,-5.10062,141.448
6.7,-5.0995,141.456
6.8,-5.09836,141.463
6.9,-5.09721,141.471
7.0,-5.09604,141.478
7.1,-5.09485,141.486
7.2,-5.09364,141.494
7.3,-5.09242,141.502
7.4,-5.09118,141.511
7.5,-5.08993,141.519
7.6,-5.08866,141.527
7.7,-5.08737,141.536
7.8,-5.08606,141.544
7.9,-5.08474,141.553
8.0,-5.08341,141.562
8.1,-5.08205,141.571
8.2,-5.08068,141.58
8.3,-5.07929,141.589
8.4,-5.07789,141.599
8.5,-5.07646,141.608
8.6,-5.07503,141.618
8.7,-5.07357,141.627
8.8,-5.0721,141.637
8.9,-5.07061,141.647
9.0,-5.06911,141.657
9.1,-5.06759,141.667
9.2,-5.06605,141.677
9.3,-5.06449,141.687
9.4,-5.06292,141.698
9.5,-5.06134,141.708
9.6,-5.05973,141.719
9.7,-5.05811,141.73
9.8,-5.05647,141.741
9.9,-5.05482,141.752
10.0,-5.05315,141.763
10.1,-5.05146,141.774
10.2,-5.04976,141.785
10.3,-5.04804,141.797
10.4,-5.04631,141.808
10.5,-5.04455,141.82
10.6,-5.04278,141.831
10.7,-5.041,141.843
10.8,-5.0392,141.855
10.9,-5.03738,141.867
11.0,-5.03554,141.88
11.1,-5.03369,141.892
11.2,-5.03183,141.904
11.3,-5.02994,141.917
11.4,-5.02804,141.929
11.5,-5.02612,141.942
11.6,-5.02419,141.955
11.7,-5.02224,141.968
11.8,-5.02028,141.981
11.9,-5.01829,141.994
12.0,-5.01629,142.008
12.1,-5.01428,142.021
12.2,-5.01225,142.035
12.3,-5.0102,142.048
12.4,-5.00814,142.062
12.5,-5.00606,142.076
12.6,-5.00396,142.09
12.7,-5.00185,142.104
12.8,-4.99972,142.118
12.9,-4.99757,142.132
13.0,-4.99541,142.147
13.1,-4.99324,142.161
13.2,-4.99104,142.176
13.3,-4.98883,142.191
13.4,-4.98661,142.205
13.5,-4.98436,142.22
13.6,-4.9821,142.235
13.7,-4.97983,142.251
13.8,-4.97754,142.266
13.9,-4.97523,142.281
14.0,-4.97291,142.297
14.1,-4.97057,142.312
14.2,-4.96821,142.328
14.3,-4.96584,142.344
14.4,-4.96345,142.36
14.5,-4.96105,142.376
14.6,-4.95863,142.392
14.7,-4.95619,142.408
14.8,-4.95374,142.425
14.9,-4.95128,142.441
15.0,-4.94879,142.458
15.1,-4.94629,142.475
15.2,-4.94378,142.491
15.3,-4.94124,142.508
15.4,-4.9387,142.525
15.5,-4.93613,142.543
15.6,-4.93355,142.56
15.7,-4.93096,142.577
15.8,-4.92835,142.595
15.9,-4.92572,142.612
16.0,-4.92307,142.63
16.1,-4.92042,142.648
16.2,-4.91774,142.666
16.3,-4.91505,142.684
16.4,-4.91234,142.702
16.5,-4.90962,142.72
16.6,-4.90688,142.739
16.7,-4.90413,142.757
16.8,-4.90136,142.776
16.9,-4.89857,142.794
17.0,-4.89577,142.813
17.1,-4.89295,142.832
17.2,-4.89012,142.851
17.3,-4.88727,142.87
17.4,-4.88441,142.889
17.5,-4.88153,142.909
17.6,-4.87863,142.928
17.7,-4.87572,142.948
17.8,-4.87279,142.968
17.9,-4.86985,142.987
18.0,-4.86689,143.007
18.1,-4.86392,143.027
18.2,-4.86093,143.047
18.3,-4.85792,143.068
18.4,-4.8549,143.088
18.5,-4.85186,143.108
18.6,-4.84881,143.129
18.7,-4.84575,143.15
18.8,-4.84266,143.17
18.9,-4.83956,143.191
19.0,-4.83645,143.212
19.1,-4.83332,143.233
19.2,-4.83018,143.254
19.3,-4.82702,143.276
19.4,-4.82384,143.297
19.5,-4.82065,143.319
19.6,-4.81744,143.34
19.7,-4.81422,143.362
19.8,-4.81098,143.384
19.9,-4.80773,143.406
20.0,-4.80446,143.428
20.1,-4.80118,143.45
20.2,-4.79788,143.473
20.3,-4.79457,143.495
20.4,-4.79124,143.517
20.5,-4.78789,143.54
20.6,-4.78453,143.563
20.7,-4.78116,143.586
20.8,-4.77777,143.609
20.9,-4.77436,143.632
21.0,-4.77094,143.655
21.1,-4.76751,143.678
21.2,-4.76406,143.701
21.3,-4.76059,143.725
21.4,-4.75711,143.748
21.5,-4.75362,143.772
21.6,-4.75011,143.796
21.7,-4.74658,143.82
21.8,-4.74304,143.844
21.9,-4.73948,143.868
22.0,-4.73591,143.892
22.1,-4.73233,143.917
22.2,-4.72872,143.941
22.3,-4.72511,143.966
22.4,-4.72148,143.99
22.5,-4.71783,144.015
22.6,-4.71417,144.04
22.7,-4.71049,144.065
22.8,-4.7068,144.09
22.9,-4.7031,144.115
23.0,-4.69938,144.141
23.1,-4.69564,144.166
23.2,-4.69189,144.192
23.3,-4.68813,144.217
23.4,-4.68435,144.243
23.5,-4.68056,144.269
23.6,-4.67675,144.295
23.7,-4.67292,144.321
23.8,-4.66908,144.347
23.9,-4.66523,144.373
24.0,-4.66136,144.4
24.1,-4.65748,144.426
24.2,-4.65358,144.453
24.3,-4.64967,144.479
24.4,-4.64575,144.506
24.5,-4.64181,144.533
24.6,-4.63785,144.56
24.7,-4.63388,144.587
24.8,-4.6299,144.615
24.9,-4.6259,144.642
25.0,-4.62189,144.669
25.1,-4.61786,144.697
25.2,-4.61382,144.725
25.3,-4.60976,144.752
25.4,-4.60569,144.78
25.5,-4.6016,144.808
25.6,-4.5975,144.836
25.7,-4.59339,144.864
25.8,-4.58926,144.893
25.9,-4.58512,144.921
26.0,-4.58096,144.95
26.1,-4.57679,144.978
26.2,-4.5726,145.007
26.3,-4.5684,145.036
26.4,-4.56419,145.065
26.5,-4.55996,145.094
26.6,-4.55572,145.123
26.7,-4.55146,145.152
26.8,-4.54719,145.182
26.9,-4.54291,145.211
27.0,-4.53861,145.241
27.1,-4.5343,145.27
27.2,-4.52997,145.3
27.3,-4.52563,145.33
27.4,-4.52127,145.36
27.5,-4.5169,145.39
27.6,-4.51252,145.42
27.7,-4.50812,145.451
27.8,-4.50371,145.481
27.9,-4.49929,145.512
28.0,-4.49485,145.542
28.1,-4.4904,145.573
28.2,-4.48593,145.604
28.3,-4.48145,145.635
28.4,-4.47696,145.666
28.5,-4.47245,145.697
28.6,-4.46793,145.728
28.7,-4.46339,145.759
28.8,-4.45884,145.791
28.9,-4.45428,145.822
29.0,-4.4497,145.854
29.1,-4.44511,145.886
29.2,-4.44051,145.918
29.3,-4.43589,145.95
29.4,-4.43126,145.982
29.5,-4.42662,146.014
29.6,-4.42196,146.046
29.7,-4.41729,146.079
29.8,-4.4126,146.111
29.9,-4.4079,146.144
30.0,-4.40319,146.177
30.1,-4.39846,146.209
30.2,-4.39372,146.242
30.3,-4.38897,146.275
30.4,-4.38421,146.308
30.5,-4.37943,146.342
30.6,-4.37463,146.375
30.7,-4.36983,146.408
30.8,-4.36501,146.442
30.9,-4.36018,146.476
31.0,-4.35533,146.509
31.1,-4.35047,146.543
31.2,-4.3456,146.577
31.3,-4.34071,146.611
31.4,-4.33581,146.645
31.5,-4.3309,146.68
31.6,-4.32598,146.714
31.7,-4.32104,146.748
31.8,-4.31609,146.783
31.9,-4.31112,146.818
32.0,-4.30614,146.852
32.1,-4.30115,146.887
32.2,-4.29615,146.922
32.3,-4.29113,146.957
32.4,-4.2861,146.992
32.5,-4.28106,147.028
32.6,-4.27601,147.063
32.7,-4.27094,147.099
32.8,-4.26586,147.134
32.9,-4.26076,147.17
33.0,-4.25566,147.206
33.1,-4.25054,147.242
33.2,-4.2454,147.277
33.3,-4.24026,147.314
33.4,-4.2351,147.35
33.5,-4.22993,147.386
33.6,-4.22475,147.422
33.7,-4.21955,147.459
33.8,-4.21434,147.496
33.9,-4.20912,147.532
34.0,-4.20389,147.569
34.1,-4.19864,147.606
34.2,-4.19338,147.643
34.3,-4.18811,147.68
34.4,-4.18283,147.717
34.5,-4.17753,147.755
34.6,-4.17222,147.792
34.7,-4.1669,147.829
34.8,-4.16157,147.867
34.9,-4.15622,147.905
35.0,-4.15086,147.943
35.1,-4.14549,147.98
35.2,-4.14011,148.018
35.3,-4.13471,148.057
35.4,-4.1293,148.095
35.5,-4.12388,148.133
35.6,-4.11845,148.171
35.7,-4.11301,148.21
35.8,-4.10755,148.248
35.9,-4.10208,148.287
36.0,-4.0966,148.326
36.1,-4.0911,148.365
36.2,-4.0856,148.404
36.3,-4.08008,148.443
36.4,-4.07455,148.482
36.5,-4.06901,148.521
36.6,-4.06346,148.561
36.7,-4.05789,148.6
36.8,-4.05231,148.64
36.9,-4.04672,148.68
37.0,-4.04112,148.719
37.1,-4.03551,148.759
37.2,-4.02988,148.799
37.3,-4.02425,148.839
37.4,-4.0186,148.879
37.5,-4.01294,148.92
37.6,-4.00727,148.96
37.7,-4.00158,149.001
37.8,-3.99589,149.041
37.9,-3.99018,149.082
38.0,-3.98446,149.122
38.1,-3.97873,149.163
38.2,-3.97299,149.204
38.3,-3.96723,149.245
38.4,-3.96147,149.286
38.5,-3.95569,149.328
38.6,-3.9499,149.369
38.7,-3.9441,149.41
38.8,-3.93829,149.452
38.9,-3.93247,149.494
39.0,-3.92663,149.535
39.1,-3.92078,149.577
39.2,-3.91493,149.619
39.3,-3.90906,149.661
39.4,-3.90318,149.703
39.5,-3.89729,149.745
39.6,-3.89138,149.788
39.7,-3.88547,149.83
39.8,-3.87955,149.873
39.9,-3.87361,149.915
40.0,-3.86766,149.958
40.1,-3.8617,150.001
40.2,-3.85573,150.043
40.3,-3.84975,150.086
40.4,-3.84376,150.13
40.5,-3.83776,150.173
40.6,-3.83174,150.216
40.7,-3.82572,150.259
40.8,-3.81968,150.303
40.9,-3.81363,150.346
41.0,-3.80758,150.39
41.1,-3.80151,150.434
41.2,-3.79543,150.477
41.3,-3.78934,150.521
41.4,-3.78324,150.565
41.5,-3.77712,150.609
41.6,-3.771,150.654
41.7,-3.76487,150.698
41.8,-3.75872,150.742
41.9,-3.75256,150.787
42.0,-3.7464,150.831
42.1,-3.74022,150.876
42.2,-3.73403,150.921
42.3,-3.72784,150.965
42.4,-3.72163,151.01
42.5,-3.71541,151.055
42.6,-3.70918,151.101
42.7,-3.70294,151.146
42.8,-3.69669,151.191
42.9,-3.69043,151.236
43.0,-3.68415,151.282
43.1,-3.67787,151.327
43.2,-3.67158,151.373
43.3,-3.66528,151.419
43.4,-3.65896,151.465
43.5,-3.65264,151.511
43.6,-3.64631,151.557
43.7,-3.63996,151.603
43.8,-3.63361,151.649
43.9,-3.62724,151.695
44.0,-3.62087,151.742
44.1,-3.61448,151.788
44.2,-3.60809,151.835
44.3,-3.60168,151.881
44.4,-3.59527,151.928
44.5,-3.58884,151.975
44.6,-3.5824,152.022
44.7,-3.57596,152.069
44.8,-3.5695,152.116
44.9,-3.56304,152.163
45.0,-3.55656,152.211
45.1,-3.55008,152.258
45.2,-3.54358,152.306
45.3,-3.53708,152.353
45.4,-3.53056,152.401
45.5,-3.52404,152.448
45.6,-3.5175,152.496
45.7,-3.51096,152.544
45.8,-3.5044,152.592
45.9,-3.49784,152.64
46.0,-3.49126,152.689
46.1,-3.48468,152.737
46.2,-3.47809,152.785
46.3,-3.47148,152.834
46.4,-3.46487,152.882
46.5,-3.45825,152.931
46.6,-3.45162,152.979
46.7,-3.44498,153.028
46.8,-3.43833,153.077
46.9,-3.43167,153.126
47.0,-3.425,153.175
47.1,-3.41832,153.224
47.2,-3.41163,153.274
47.3,-3.40493,153.323
47.4,-3.39823,153.372
47.5,-3.39151,153.422
47.6,-3.38479,153.471
47.7,-3.37805,153.521
47.8,-3.37131,153.571
47.9,-3.36455,153.621
48.0,-3.35779,153.67
48.1,-3.35102,153.72
48.2,-3.34424,153.771
48.3,-3.33745,153.821
48.4,-3.33065,153.871
48.5,-3.32384,153.921
48.6,-3.31702,153.972
48.7,-3.3102,154.022
48.8,-3.30336,154.073
48.9,-3.29652,154.124
49.0,-3.28967,154.174
49.1,-3.2828,154.225
49.2,-3.27593,154.276
49.3,-3.26905,154.327
49.4,-3.26217,154.378
49.5,-3.25527,154.429
49.6,-3.24836,154.481
49.7,-3.24145,154.532
49.8,-3.23452,154.583
49.9,-3.22759,154.635
50.0,-3.22065,154.687
50.1,-3.2137,154.738
50.2,-3.20674,154.79
50.3,-3.19977,154.842
50.4,-3.1928,154.894
50.5,-3.18581,154.946
50.6,-3.17882,154.998
50.7,-3.17182,155.05
50.8,-3.16481,155.102
50.9,-3.15779,155.155
51.0,-3.15076,155.207
51.1,-3.14373,155.26
51.2,-3.13669,155.312
51.3,-3.12963,155.365
51.4,-3.12257,155.418
51.5,-3.11551,155.47
51.6,-3.10843,155.523
51.7,-3.10134,155.576
51.8,-3.09425,155.629
51.9,-3.08715,155.682
52.0,-3.08004,155.736
52.1,-3.07292,155.789
52.2,-3.06579,155.842
52.3,-3.05866,155.896
52.4,-3.05152,155.949
52.5,-3.04437,156.003
52.6,-3.03721,156.057
52.7,-3.03004,156.11
52.8,-3.02287,156.164
52.9,-3.01569,156.218
53.0,-3.00849,156.272
53.1,-3.0013,156.326
53.2,-2.99409,156.38
53.3,-2.98688,156.435
53.4,-2.97965,156.489
53.5,-2.97242,156.543
53.6,-2.96519,156.598
53.7,-2.95794,156.652
53.8,-2.95069,156.707
53.9,-2.94343,156.762
54.0,-2.93616,156.817
54.1,-2.92888,156.871
54.2,-2.9216,156.926
54.3,-2.91431,156.981
54.4,-2.90701,157.036
54.5,-2.8997,157.092
54.6,-2.89239,157.147
54.7,-2.88507,157.202
54.8,-2.87774,157.258
54.9,-2.8704,157.313
55.0,-2.86306,157.368
55.1,-2.8557,157.424
55.2,-2.84835,157.48
55.3,-2.84098,157.536
55.4,-2.83361,157.591
55.5,-2.82622,157.647
55.6,-2.81884,157.703
55.7,-2.81144,157.759
55.8,-2.80404,157.815
55.9,-2.79663,157.872
56.0,-2.78921,157.928
56.1,-2.78179,157.984
56.2,-2.77435,158.041
56.3,-2.76692,158.097
56.4,-2.75947,158.154
56.5,-2.75202,158.21
56.6,-2.74456,158.267
56.7,-2.73709,158.324
56.8,-2.72962,158.381
56.9,-2.72213,158.438
57.0,-2.71465,158.495
57.1,-2.70715,158.552
57.2,-2.69965,158.609
57.3,-2.69214,158.666
57.4,-2.68463,158.723
57.5,-2.6771,158.781
57.6,-2.66957,158.838
57.7,-2.66204,158.896
57.8,-2.65449,158.953
57.9,-2.64694,159.011
58.0,-2.63939,159.068
58.1,-2.63183,159.126
58.2,-2.62426,159.184
58.3,-2.61668,159.242
58.4,-2.6091,159.3
58.5,-2.60151,159.358
58.6,-2.59391,159.416
58.7,-2.58631,159.474
58.8,-2.5787,159.533
58.9,-2.57108,159.591
59.0,-2.56346,159.649
59.1,-2.55583,159.708
59.2,-2.5482,159.766
59.3,-2.54056,159.825
59.4,-2.53291,159.883
59.5,-2.52525,159.942
59.6,-2.51759,160.001
59.7,-2.50993,160.06
59.8,-2.50225,160.119
59.9,-2.49457,160.178
60.0,-2.48689,160.237
60.1,-2.4792,160.296
60.2,-2.4715,160.355
60.3,-2.46379,160.414
60.4,-2.45608,160.474
60.5,-2.44837,160.533
60.6,-2.44064,160.593
60.7,-2.43292,160.652
60.8,-2.42518,160.712
60.9,-2.41744,160.771
61.0,-2.40969,160.831
61.1,-2.40194,160.891
61.2,-2.39418,160.951
61.3,-2.38642,161.01
61.4,-2.37865,161.07
61.5,-2.37087,161.13
61.6,-2.36309,161.191
61.7,-2.3553,161.251
61.8,-2.34751,161.311
61.9,-2.33971,161.371
62.0,-2.3319,161.431
62.1,-2.32409,161.492
62.2,-2.31627,161.552
62.3,-2.30845,161.613
62.4,-2.30062,161.673
62.5,-2.29279,161.734
62.6,-2.28495,161.795
62.7,-2.2771,161.856
62.8,-2.26925,161.916
62.9,-2.26139,161.977
63.0,-2.25353,162.038
63.1,-2.24567,162.099
63.2,-2.23779,162.16
63.3,-2.22991,162.221
63.4,-2.22203,162.283
63.5,-2.21414,162.344
63.6,-2.20625,162.405
63.7,-2.19835,162.467
63.8,-2.19044,162.528
63.9,-2.18253,162.589
64.0,-2.17461,162.651
64.1,-2.16669,162.713
64.2,-2.15877,162.774
64.3,-2.15083,162.836
64.4,-2.1429,162.898
64.5,-2.13495,162.96
64.6,-2.12701,163.021
64.7,-2.11905,163.083
64.8,-2.1111,163.145
64.9,-2.10313,163.207
65.0,-2.09517,163.27
65.1,-2.08719,163.332
65.2,-2.07922,163.394
65.3,-2.07123,163.456
65.4,-2.06324,163.519
65.5,-2.05525,163.581
65.6,-2.04725,163.643
65.7,-2.03925,163.706
65.8,-2.03124,163.768
65.9,-2.02323,163.831
66.0,-2.01521,163.894
66.1,-2.00719,163.956
66.2,-1.99916,164.019
66.3,-1.99113,164.082
66.4,-1.9831,164.145
66.5,-1.97505,164.208
66.6,-1.96701,164.271
66.7,-1.95896,164.334
66.8,-1.9509,164.397
66.9,-1.94284,164.46
67.0,-1.93478,164.523
67.1,-1.92671,164.587
67.2,-1.91863,164.65
67.3,-1.91056,164.713
67.4,-1.90247,164.777
67.5,-1.89438,164.84
67.6,-1.88629,164.904
67.7,-1.8782,164.967
67.8,-1.8701,165.031
67.9,-1.86199,165.094
68.0,-1.85388,165.158
68.1,-1.84577,165.222
68.2,-1.83765,165.286
68.3,-1.82952,165.35
68.4,-1.8214,165.413
68.5,-1.81327,165.477
68.6,-1.80513,165.541
68.7,-1.79699,165.605
68.8,-1.78885,165.67
68.9,-1.7807,165.734
69.0,-1.77254,165.798
69.1,-1.76439,165.862
69.2,-1.75623,165.926
69.3,-1.74806,165.991
69.4,-1.73989,166.055
69.5,-1.73172,166.12
69.6,-1.72354,166.184
69.7,-1.71536,166.249
69.8,-1.70717,166.313
69.9,-1.69899,166.378
70.0,-1.69079,166.443
70.1,-1.68259,166.507
70.2,-1.67439,166.572
70.3,-1.66619,166.637
70.4,-1.65798,166.702
70.5,-1.64977,166.767
70.6,-1.64155,166.832
70.7,-1.63333,166.896
70.8,-1.6251,166.962
70.9,-1.61688,167.027
71.0,-1.60864,167.092
71.1,-1.60041,167.157
71.2,-1.59217,167.222
71.3,-1.58393,167.287
71.4,-1.57568,167.353
71.5,-1.56743,167.418
71.6,-1.55917,167.483
71.7,-1.55092,167.549
71.8,-1.54266,167.614
71.9,-1.53439,167.68
72.0,-1.52612,167.745
72.1,-1.51785,167.811
72.2,-1.50958,167.876
72.3,-1.5013,167.942
72.4,-1.49301,168.008
72.5,-1.48473,168.074
72.6,-1.47644,168.139
72.7,-1.46815,168.205
72.8,-1.45985,168.271
72.9,-1.45155,168.337
73.0,-1.44325,168.403
73.1,-1.43494,168.469
73.2,-1.42663,168.535
73.3,-1.41832,168.601
73.4,-1.41,168.667
73.5,-1.40169,168.733
73.6,-1.39336,168.799
73.7,-1.38504,168.866
73.8,-1.37671,168.932
73.9,-1.36838,168.998
74.0,-1.36004,169.065
74.1,-1.3517,169.131
74.2,-1.34336,169.197
74.3,-1.33502,169.264
74.4,-1.32667,169.33
74.5,-1.31832,169.397
74.6,-1.30997,169.463
74.7,-1.30161,169.53
74.8,-1.29325,169.597
74.9,-1.28489,169.663
75.0,-1.27652,169.73
75.1,-1.26816,169.797
75.2,-1.25979,169.863
75.3,-1.25141,169.93
75.4,-1.24304,169.997
75.5,-1.23466,170.064
75.6,-1.22627,170.131
75.7,-1.21789,170.198
75.8,-1.2095,170.265
75.9,-1.20111,170.332
76.0,-1.19272,170.399
76.1,-1.18432,170.466
76.2,-1.17592,170.533
76.3,-1.16752,170.6
76.4,-1.15912,170.667
76.5,-1.15071,170.734
76.6,-1.1423,170.802
76.7,-1.13389,170.869
76.8,-1.12548,170.936
76.9,-1.11706,171.003
77.0,-1.10864,171.071
77.1,-1.10022,171.138
77.2,-1.09179,171.206
77.3,-1.08337,171.273
77.4,-1.07494,171.341
77.5,-1.06651,171.408
77.6,-1.05807,171.476
77.7,-1.04964,171.543
77.8,-1.0412,171.611
77.9,-1.03276,171.678
78.0,-1.02431,171.746
78.1,-1.01587,171.814
78.2,-1.00742,171.881
78.3,-0.998968,171.949
78.4,-0.990515,172.017
78.5,-0.98206,172.085
78.6,-0.973603,172.152
78.7,-0.965144,172.22
78.8,-0.956683,172.288
78.9,-0.94822,172.356
79.0,-0.939754,172.424
79.1,-0.931286,172.492
79.2,-0.922817,172.56
79.3,-0.914345,172.628
79.4,-0.905871,172.696
79.5,-0.897395,172.764
79.6,-0.888917,172.832
79.7,-0.880437,172.9
79.8,-0.871955,172.968
79.9,-0.863472,173.036
80.0,-0.854986,173.104
80.1,-0.846498,173.173
80.2,-0.838009,173.241
80.3,-0.829517,173.309
80.4,-0.821024,173.377
80.5,-0.812529,173.446
80.6,-0.804032,173.514
80.7,-0.795534,173.582
80.8,-0.787033,173.65
80.9,-0.778531,173.719
81.0,-0.770027,173.787
81.1,-0.761522,173.856
81.2,-0.753014,173.924
81.3,-0.744505,173.993
81.4,-0.735995,174.061
81.5,-0.727483,174.129
81.6,-0.718969,174.198
81.7,-0.710453,174.266
81.8,-0.701936,174.335
81.9,-0.693418,174.404
82.0,-0.684897,174.472
82.1,-0.676376,174.541
82.2,-0.667853,174.609
82.3,-0.659328,174.678
82.4,-0.650802,174.747
82.5,-0.642274,174.815
82.6,-0.633746,174.884
82.7,-0.625215,174.953
82.8,-0.616683,175.022
82.9,-0.60815,175.09
83.0,-0.599616,175.159
83.1,-0.59108,175.228
83.2,-0.582543,175.297
83.3,-0.574005,175.365
83.4,-0.565465,175.434
83.5,-0.556924,175.503
83.6,-0.548382,175.572
83.7,-0.539839,175.641
83.8,-0.531294,175.71
83.9,-0.522749,175.779
84.0,-0.514202,175.848
84.1,-0.505654,175.916
84.2,-0.497105,175.985
84.3,-0.488555,176.054
84.4,-0.480003,176.123
84.5,-0.471451,176.192
84.6,-0.462898,176.261
84.7,-0.454343,176.33
84.8,-0.445788,176.399
84.9,-0.437232,176.468
85.0,-0.428674,176.537
85.1,-0.420116,176.607
85.2,-0.411557,176.676
85.3,-0.402997,176.745
85.4,-0.394436,176.814
85.5,-0.385874,176.883
85.6,-0.377311,176.952
85.7,-0.368748,177.021
85.8,-0.360184,177.09
85.9,-0.351618,177.159
86.0,-0.343053,177.229
86.1,-0.334486,177.298
86.2,-0.325918,177.367
86.3,-0.31735,177.436
86.4,-0.308782,177.505
86.5,-0.300212,177.574
86.6,-0.291642,177.644
86.7,-0.283071,177.713
86.8,-0.2745,177.782
86.9,-0.265928,177.851
87.0,-0.257355,177.921
87.1,-0.248782,177.99
87.2,-0.240208,178.059
87.3,-0.231634,178.128
87.4,-0.223059,178.198
87.5,-0.214484,178.267
