Angle (deg),Magnitude (dB),Phase (deg)
0.0,-5.45626,-5.45626
0.1,-5.45626,-5.45626
0.2,-5.45624,-5.45624
0.3,-5.45621,-5.45621
0.4,-5.45618,-5.45618
0.5,-5.45613,-5.45613
0.6,-5.45607,-5.45607
0.7,-5.456,-5.456
0.8,-5.45592,-5.45592
0.9,-5.45584,-5.45584
1.0,-5.45574,-5.45574
1.1,-5.45563,-5.45563
1.2,-5.45551,-5.45551
1.3,-5.45538,-5.45538
1.4,-5.45525,-5.45525
1.5,-5.4551,-5.4551
1.6,-5.45495,-5.45495
1.7,-5.45479,-5.45479
1.8,-5.45462,-5.45462
1.9,-5.45445,-5.45445
2.0,-5.45426,-5.45426
2.1,-5.45408,-5.45408
2.2,-5.45388,-5.45388
2.3,-5.45368,-5.45368
2.4,-5.45347,-5.45347
2.5,-5.45326,-5.45326
2.6,-5.45305,-5.45305
2.7,-5.45283,-5.45283
2.8,-5.45261,-5.45261
2.9,-5.45239,-5.45239
3.0,-5.45216,-5.45216
3.1,-5.45194,-5.45194
3.2,-5.45171,-5.45171
3.3,-5.45148,-5.45148
3.4,-5.45126,-5.45126
3.5,-5.45103,-5.45103
3.6,-5.45081,-5.45081
3.7,-5.45059,-5.45059
3.8,-5.45038,-5.45038
3.9,-5.45017,-5.45017
4.0,-5.44996,-5.44996
4.1,-5.44976,-5.44976
4.2,-5.44957,-5.44957
4.3,-5.44939,-5.44939
4.4,-5.44921,-5.44921
4.5,-5.44905,-5.44905
4.6,-5.44889,-5.44889
4.7,-5.44875,-5.44875
4.8,-5.44862,-5.44862
4.9,-5.4485,-5.4485
5.0,-5.4484,-5.4484
5.1,-5.44832,-5.44832
5.2,-5.44825,-5.44825
5.3,-5.4482,-5.4482
5.4,-5.44817,-5.44817
5.5,-5.44816,-5.44816
5.6,-5.44817,-5.44817
5.7,-5.4482,-5.4482
5.8,-5.44826,-5.44826
5.9,-5.44835,-5.44835
6.0,-5.44846,-5.44846
6.1,-5.4486,-5.4486
6.2,-5.44876,-5.44876
6.3,-5.44896,-5.44896
6.4,-5.44919,-5.44919
6.5,-5.44945,-5.44945
6.6,-5.44975,-5.44975
6.7,-5.45009,-5.45009
6.8,-5.45046,-5.45046
6.9,-5.45087,-5.45087
7.0,-5.45132,-5.45132
7.1,-5.45181,-5.45181
7.2,-5.45235,-5.45235
7.3,-5.45294,-5.45294
7.4,-5.45357,-5.45357
7.5,-5.45425,-5.45425
7.6,-5.45498,-5.45498
7.7,-5.45576,-5.45576
7.8,-5.45659,-5.45659
7.9,-5.45749,-5.45749
8.0,-5.45843,-5.45843
8.1,-5.45944,-5.45944
8.2,-5.46051,-5.46051
8.3,-5.46165,-5.46165
8.4,-5.46284,-5.46284
8.5,-5.46411,-5.46411
8.6,-5.46544,-5.46544
8.7,-5.46685,-5.46685
8.8,-5.46833,-5.46833
8.9,-5.46988,-5.46988
9.0,-5.47151,-5.47151
9.1,-5.47322,-5.47322
9.2,-5.47501,-5.47501
9.3,-5.47689,-5.47689
9.4,-5.47885,-5.47885
9.5,-5.4809,-5.4809
9.6,-5.48304,-5.48304
9.7,-5.48527,-5.48527
9.8,-5.4876,-5.4876
9.9,-5.49003,-5.49003
10.0,-5.49256,-5.49256
10.1,-5.49519,-5.49519
10.2,-5.49792,-5.49792
10.3,-5.50077,-5.50077
10.4,-5.50372,-5.50372
10.5,-5.50679,-5.50679
10.6,-5.50998,-5.50998
10.7,-5.51328,-5.51328
10.8,-5.51671,-5.51671
10.9,-5.52026,-5.52026
11.0,-5.52393,-5.52393
11.1,-5.52774,-5.52774
11.2,-5.53169,-5.53169
11.3,-5.53577,-5.53577
11.4,-5.53999,-5.53999
11.5,-5.54435,-5.54435
11.6,-5.54886,-5.54886
11.7,-5.55351,-5.55351
11.8,-5.55833,-5.55833
11.9,-5.56329,-5.56329
12.0,-5.56842,-5.56842
12.1,-5.57371,-5.57371
12.2,-5.57917,-5.57917
12.3,-5.5848,-5.5848
12.4,-5.59061,-5.59061
12.5,-5.59659,-5.59659
12.6,-5.60275,-5.60275
12.7,-5.6091,-5.6091
12.8,-5.61564,-5.61564
12.9,-5.62238,-5.62238
13.0,-5.62931,-5.62931
13.1,-5.63645,-5.63645
13.2,-5.64379,-5.64379
13.3,-5.65135,-5.65135
13.4,-5.65912,-5.65912
13.5,-5.66711,-5.66711
13.6,-5.67533,-5.67533
13.7,-5.68377,-5.68377
13.8,-5.69246,-5.69246
13.9,-5.70138,-5.70138
14.0,-5.71055,-5.71055
14.1,-5.71997,-5.71997
14.2,-5.72964,-5.72964
14.3,-5.73957,-5.73957
14.4,-5.74978,-5.74978
14.5,-5.76025,-5.76025
14.6,-5.771,-5.771
14.7,-5.78204,-5.78204
14.8,-5.79337,-5.79337
14.9,-5.80499,-5.80499
15.0,-5.81691,-5.81691
15.1,-5.82915,-5.82915
15.2,-5.8417,-5.8417
15.3,-5.85457,-5.85457
15.4,-5.86777,-5.86777
15.5,-5.88131,-5.88131
15.6,-5.89519,-5.89519
15.7,-5.90942,-5.90942
15.8,-5.92402,-5.92402
15.9,-5.93897,-5.93897
16.0,-5.95431,-5.95431
16.1,-5.97002,-5.97002
16.2,-5.98613,-5.98613
16.3,-6.00263,-6.00263
16.4,-6.01954,-6.01954
16.5,-6.03687,-6.03687
16.6,-6.05463,-6.05463
16.7,-6.07282,-6.07282
16.8,-6.09146,-6.09146
16.9,-6.11055,-6.11055
17.0,-6.13011,-6.13011
17.1,-6.15014,-6.15014
17.2,-6.17066,-6.17066
17.3,-6.19168,-6.19168
17.4,-6.21321,-6.21321
17.5,-6.23526,-6.23526
17.6,-6.25784,-6.25784
17.7,-6.28097,-6.28097
17.8,-6.30465,-6.30465
17.9,-6.32891,-6.32891
18.0,-6.35375,-6.35375
18.1,-6.37919,-6.37919
18.2,-6.40523,-6.40523
18.3,-6.43191,-6.43191
18.4,-6.45923,-6.45923
18.5,-6.4872,-6.4872
18.6,-6.51585,-6.51585
18.7,-6.54518,-6.54518
18.8,-6.57522,-6.57522
18.9,-6.60599,-6.60599
19.0,-6.63749,-6.63749
19.1,-6.66976,-6.66976
19.2,-6.7028,-6.7028
19.3,-6.73664,-6.73664
19.4,-6.7713,-6.7713
19.5,-6.8068,-6.8068
19.6,-6.84316,-6.84316
19.7,-6.8804,-6.8804
19.8,-6.91855,-6.91855
19.9,-6.95763,-6.95763
20.0,-6.99766,-6.99766
20.1,-7.03868,-7.03868
20.2,-7.08069,-7.08069
20.3,-7.12375,-7.12375
20.4,-7.16786,-7.16786
20.5,-7.21306,-7.21306
20.6,-7.25938,-7.25938
20.7,-7.30686,-7.30686
20.8,-7.35552,-7.35552
20.9,-7.40539,-7.40539
21.0,-7.45652,-7.45652
21.1,-7.50893,-7.50893
21.2,-7.56267,-7.56267
21.3,-7.61778,-7.61778
21.4,-7.67428,-7.67428
21.5,-7.73224,-7.73224
21.6,-7.79168,-7.79168
21.7,-7.85266,-7.85266
21.8,-7.91522,-7.91522
21.9,-7.97941,-7.97941
22.0,-8.04528,-8.04528
22.1,-8.11289,-8.11289
22.2,-8.18229,-8.18229
22.3,-8.25353,-8.25353
22.4,-8.32668,-8.32668
22.5,-8.4018,-8.4018
22.6,-8.47896,-8.47896
22.7,-8.55822,-8.55822
22.8,-8.63966,-8.63966
22.9,-8.72335,-8.72335
23.0,-8.80937,-8.80937
23.1,-8.89779,-8.89779
23.2,-8.98872,-8.98872
23.3,-9.08223,-9.08223
23.4,-9.17843,-9.17843
23.5,-9.27741,-9.27741
23.6,-9.37927,-9.37927
23.7,-9.48413,-9.48413
23.8,-9.59211,-9.59211
23.9,-9.70332,-9.70332
24.0,-9.81789,-9.81789
24.1,-9.93597,-9.93597
24.2,-10.0577,-10.0577
24.3,-10.1832,-10.1832
24.4,-10.3127,-10.3127
24.5,-10.4463,-10.4463
24.6,-10.5842,-10.5842
24.7,-10.7266,-10.7266
24.8,-10.8738,-10.8738
24.9,-11.0258,-11.0258
25.0,-11.183,-11.183
25.1,-11.3457,-11.3457
25.2,-11.514,-11.514
25.3,-11.6883,-11.6883
25.4,-11.8688,-11.8688
25.5,-12.056,-12.056
25.6,-12.2501,-12.2501
25.7,-12.4516,-12.4516
25.8,-12.6609,-12.6609
25.9,-12.8783,-12.8783
26.0,-13.1045,-13.1045
26.1,-13.3399,-13.3399
26.2,-13.5851,-13.5851
26.3,-13.8408,-13.8408
26.4,-14.1076,-14.1076
26.5,-14.3863,-14.3863
26.6,-14.6777,-14.6777
26.7,-14.9828,-14.9828
26.8,-15.3026,-15.3026
26.9,-15.6382,-15.6382
27.0,-15.9908,-15.9908
27.1,-16.3619,-16.3619
27.2,-16.753,-16.753
27.3,-17.1658,-17.1658
27.4,-17.6022,-17.6022
27.5,-18.0644,-18.0644
27.6,-18.5545,-18.5545
27.7,-19.0753,-19.0753
27.8,-19.6293,-19.6293
27.9,-20.2193,-20.2193
28.0,-20.8481,-20.8481
28.1,-21.5177,-21.5177
28.2,-22.2294,-22.2294
28.3,-22.9817,-22.9817
28.4,-23.7692,-23.7692
28.5,-24.5781,-24.5781
28.6,-25.3818,-25.3818
28.7,-26.1337,-26.1337
28.8,-26.763,-26.763
28.9,-27.1811,-27.1811
29.0,-27.3075,-27.3075
29.1,-27.1094,-27.1094
29.2,-26.6212,-26.6212
29.3,-25.9242,-25.9242
29.4,-25.1068,-25.1068
29.5,-24.2392,-24.2392
29.6,-23.3674,-23.3674
29.7,-22.5178,-22.5178
29.8,-21.7038,-21.7038
29.9,-20.9308,-20.9308
30.0,-20.2001,-20.2001
30.1,-19.5105,-19.5105
30.2,-18.86,-18.86
30.3,-18.2458,-18.2458
30.4,-17.6652,-17.6652
30.5,-17.1156,-17.1156
30.6,-16.5944,-16.5944
30.7,-16.0994,-16.0994
30.8,-15.6284,-15.6284
30.9,-15.1797,-15.1797
31.0,-14.7515,-14.7515
31.1,-14.3422,-14.3422
31.2,-13.9507,-13.9507
31.3,-13.5755,-13.5755
31.4,-13.2156,-13.2156
31.5,-12.8701,-12.8701
31.6,-12.5379,-12.5379
31.7,-12.2184,-12.2184
31.8,-11.9107,-11.9107
31.9,-11.6141,-11.6141
32.0,-11.3281,-11.3281
32.1,-11.0521,-11.0521
32.2,-10.7856,-10.7856
32.3,-10.528,-10.528
32.4,-10.279,-10.279
32.5,-10.0382,-10.0382
32.6,-9.80507,-9.80507
32.7,-9.57938,-9.57938
32.8,-9.36077,-9.36077
32.9,-9.14895,-9.14895
33.0,-8.94363,-8.94363
33.1,-8.74455,-8.74455
33.2,-8.55145,-8.55145
33.3,-8.3641,-8.3641
33.4,-8.18229,-8.18229
33.5,-8.0058,-8.0058
33.6,-7.83444,-7.83444
33.7,-7.66803,-7.66803
33.8,-7.50639,-7.50639
33.9,-7.34936,-7.34936
34.0,-7.19677,-7.19677
34.1,-7.04848,-7.04848
34.2,-6.90435,-6.90435
34.3,-6.76423,-6.76423
34.4,-6.628,-6.628
34.5,-6.49554,-6.49554
34.6,-6.36673,-6.36673
34.7,-6.24144,-6.24144
34.8,-6.11958,-6.11958
34.9,-6.00104,-6.00104
35.0,-5.88571,-5.88571
35.1,-5.77351,-5.77351
35.2,-5.66433,-5.66433
35.3,-5.55809,-5.55809
35.4,-5.45471,-5.45471
35.5,-5.35409,-5.35409
35.6,-5.25616,-5.25616
35.7,-5.16085,-5.16085
35.8,-5.06807,-5.06807
35.9,-4.97776,-4.97776
36.0,-4.88984,-4.88984
36.1,-4.80425,-4.80425
36.2,-4.72093,-4.72093
36.3,-4.6398,-4.6398
36.4,-4.56082,-4.56082
36.5,-4.48391,-4.48391
36.6,-4.40903,-4.40903
36.7,-4.33612,-4.33612
36.8,-4.26512,-4.26512
36.9,-4.19598,-4.19598
37.0,-4.12866,-4.12866
37.1,-4.0631,-4.0631
37.2,-3.99925,-3.99925
37.3,-3.93708,-3.93708
37.4,-3.87653,-3.87653
37.5,-3.81757,-3.81757
37.6,-3.76015,-3.76015
37.7,-3.70422,-3.70422
37.8,-3.64976,-3.64976
37.9,-3.59673,-3.59673
38.0,-3.54508,-3.54508
38.1,-3.49478,-3.49478
38.2,-3.4458,-3.4458
38.3,-3.3981,-3.3981
38.4,-3.35165,-3.35165
38.5,-3.30642,-3.30642
38.6,-3.26238,-3.26238
38.7,-3.2195,-3.2195
38.8,-3.17774,-3.17774
38.9,-3.13709,-3.13709
39.0,-3.09752,-3.09752
39.1,-3.05899,-3.05899
39.2,-3.02148,-3.02148
39.3,-2.98498,-2.98498
39.4,-2.94945,-2.94945
39.5,-2.91487,-2.91487
39.6,-2.88123,-2.88123
39.7,-2.84849,-2.84849
39.8,-2.81664,-2.81664
39.9,-2.78565,-2.78565
40.0,-2.75552,-2.75552
40.1,-2.72621,-2.72621
40.2,-2.69771,-2.69771
40.3,-2.67001,-2.67001
40.4,-2.64309,-2.64309
40.5,-2.61692,-2.61692
40.6,-2.5915,-2.5915
40.7,-2.5668,-2.5668
40.8,-2.54282,-2.54282
40.9,-2.51954,-2.51954
41.0,-2.49695,-2.49695
41.1,-2.47503,-2.47503
41.2,-2.45377,-2.45377
41.3,-2.43316,-2.43316
41.4,-2.41319,-2.41319
41.5,-2.39384,-2.39384
41.6,-2.3751,-2.3751
41.7,-2.35698,-2.35698
41.8,-2.33944,-2.33944
41.9,-2.3225,-2.3225
42.0,-2.30613,-2.30613
42.1,-2.29033,-2.29033
42.2,-2.27509,-2.27509
42.3,-2.2604,-2.2604
42.4,-2.24626,-2.24626
42.5,-2.23266,-2.23266
42.6,-2.2196,-2.2196
42.7,-2.20706,-2.20706
42.8,-2.19504,-2.19504
42.9,-2.18355,-2.18355
43.0,-2.17256,-2.17256
43.1,-2.16209,-2.16209
43.2,-2.15212,-2.15212
43.3,-2.14265,-2.14265
43.4,-2.13369,-2.13369
43.5,-2.12522,-2.12522
43.6,-2.11725,-2.11725
43.7,-2.10977,-2.10977
43.8,-2.10279,-2.10279
43.9,-2.09629,-2.09629
44.0,-2.0903,-2.0903
44.1,-2.08479,-2.08479
44.2,-2.07978,-2.07978
44.3,-2.07527,-2.07527
44.4,-2.07125,-2.07125
44.5,-2.06773,-2.06773
44.6,-2.06472,-2.06472
44.7,-2.06222,-2.06222
44.8,-2.06023,-2.06023
44.9,-2.05875,-2.05875
45.0,-2.0578,-2.0578
45.1,-2.05737,-2.05737
45.2,-2.05748,-2.05748
45.3,-2.05813,-2.05813
45.4,-2.05933,-2.05933
45.5,-2.06109,-2.06109
45.6,-2.06342,-2.06342
45.7,-2.06633,-2.06633
45.8,-2.06983,-2.06983
45.9,-2.07393,-2.07393
46.0,-2.07866,-2.07866
46.1,-2.08401,-2.08401
46.2,-2.09001,-2.09001
46.3,-2.09668,-2.09668
46.4,-2.10402,-2.10402
46.5,-2.11207,-2.11207
46.6,-2.12084,-2.12084
46.7,-2.13035,-2.13035
46.8,-2.14063,-2.14063
46.9,-2.15169,-2.15169
47.0,-2.16358,-2.16358
47.1,-2.17631,-2.17631
47.2,-2.18992,-2.18992
47.3,-2.20444,-2.20444
47.4,-2.21991,-2.21991
47.5,-2.23636,-2.23636
47.6,-2.25382,-2.25382
47.7,-2.27235,-2.27235
47.8,-2.29199,-2.29199
47.9,-2.31279,-2.31279
48.0,-2.3348,-2.3348
48.1,-2.35807,-2.35807
48.2,-2.38266,-2.38266
48.3,-2.40865,-2.40865
48.4,-2.43609,-2.43609
48.5,-2.46506,-2.46506
48.6,-2.49563,-2.49563
48.7,-2.5279,-2.5279
48.8,-2.56195,-2.56195
48.9,-2.59788,-2.59788
49.0,-2.63579,-2.63579
49.1,-2.6758,-2.6758
49.2,-2.71802,-2.71802
49.3,-2.7626,-2.7626
49.4,-2.80966,-2.80966
49.5,-2.85936,-2.85936
49.6,-2.91187,-2.91187
49.7,-2.96737,-2.96737
49.8,-3.02604,-3.02604
49.9,-3.08809,-3.08809
50.0,-3.15376,-3.15376
50.1,-3.22329,-3.22329
50.2,-3.29694,-3.29694
50.3,-3.37502,-3.37502
50.4,-3.45784,-3.45784
50.5,-3.54574,-3.54574
50.6,-3.63911,-3.63911
50.7,-3.73836,-3.73836
50.8,-3.84396,-3.84396
50.9,-3.9564,-3.9564
51.0,-4.07624,-4.07624
51.1,-4.20407,-4.20407
51.2,-4.34059,-4.34059
51.3,-4.48652,-4.48652
51.4,-4.6427,-4.6427
51.5,-4.81003,-4.81003
51.6,-4.98953,-4.98953
51.7,-5.18235,-5.18235
51.8,-5.38975,-5.38975
51.9,-5.61316,-5.61316
52.0,-5.85421,-5.85421
52.1,-6.1147,-6.1147
52.2,-6.39671,-6.39671
52.3,-6.70259,-6.70259
52.4,-7.03507,-7.03507
52.5,-7.39726,-7.39726
52.6,-7.79278,-7.79278
52.7,-8.22588,-8.22588
52.8,-8.70153,-8.70153
52.9,-9.22564,-9.22564
53.0,-9.8053,-9.8053
53.1,-10.449,-10.449
53.2,-11.1671,-11.1671
53.3,-11.9722,-11.9722
53.4,-12.8796,-12.8796
53.5,-13.9071,-13.9071
53.6,-15.0744,-15.0744
53.7,-16.3975,-16.3975
53.8,-17.8719,-17.8719
53.9,-19.4218,-19.4218
54.0,-20.788,-20.788
54.1,-21.4442,-21.4442
54.2,-20.9746,-20.9746
54.3,-19.6473,-19.6473
54.4,-18.0246,-18.0246
54.5,-16.4358,-16.4358
54.6,-14.9908,-14.9908
54.7,-13.706,-13.706
54.8,-12.5688,-12.5688
54.9,-11.5599,-11.5599
55.0,-10.6611,-10.6611
55.1,-9.8567,-9.8567
55.2,-9.13353,-9.13353
55.3,-8.48085,-8.48085
55.4,-7.88973,-7.88973
55.5,-7.35276,-7.35276
55.6,-6.86369,-6.86369
55.7,-6.41723,-6.41723
55.8,-6.00884,-6.00884
55.9,-5.6346,-5.6346
56.0,-5.2911,-5.2911
56.1,-4.97535,-4.97535
56.2,-4.68472,-4.68472
56.3,-4.41686,-4.41686
56.4,-4.16969,-4.16969
56.5,-3.94136,-3.94136
56.6,-3.7302,-3.7302
56.7,-3.5347,-3.5347
56.8,-3.35352,-3.35352
56.9,-3.18544,-3.18544
57.0,-3.02936,-3.02936
57.1,-2.88428,-2.88428
57.2,-2.74929,-2.74929
57.3,-2.62357,-2.62357
57.4,-2.50638,-2.50638
57.5,-2.39703,-2.39703
57.6,-2.29491,-2.29491
57.7,-2.19945,-2.19945
57.8,-2.11014,-2.11014
57.9,-2.0265,-2.0265
58.0,-1.94811,-1.94811
58.1,-1.87458,-1.87458
58.2,-1.80554,-1.80554
58.3,-1.74067,-1.74067
58.4,-1.67966,-1.67966
58.5,-1.62224,-1.62224
58.6,-1.56815,-1.56815
58.7,-1.51716,-1.51716
58.8,-1.46906,-1.46906
58.9,-1.42364,-1.42364
59.0,-1.38073,-1.38073
59.1,-1.34016,-1.34016
59.2,-1.30176,-1.30176
59.3,-1.26541,-1.26541
59.4,-1.23097,-1.23097
59.5,-1.19831,-1.19831
59.6,-1.16732,-1.16732
59.7,-1.1379,-1.1379
59.8,-1.10995,-1.10995
59.9,-1.08338,-1.08338
60.0,-1.0581,-1.0581
60.1,-1.03405,-1.03405
60.2,-1.01115,-1.01115
60.3,-0.989323,-0.989323
60.4,-0.968518,-0.968518
60.5,-0.948673,-0.948673
60.6,-0.929735,-0.929735
60.7,-0.911653,-0.911653
60.8,-0.894379,-0.894379
60.9,-0.877871,-0.877871
61.0,-0.862087,-0.862087
61.1,-0.846989,-0.846989
61.2,-0.83254,-0.83254
61.3,-0.818708,-0.818708
61.4,-0.805461,-0.805461
61.5,-0.792769,-0.792769
61.6,-0.780605,-0.780605
61.7,-0.768943,-0.768943
61.8,-0.757759,-0.757759
61.9,-0.74703,-0.74703
62.0,-0.736734,-0.736734
62.1,-0.726852,-0.726852
62.2,-0.717366,-0.717366
62.3,-0.708256,-0.708256
62.4,-0.699506,-0.699506
62.5,-0.691102,-0.691102
62.6,-0.683028,-0.683028
62.7,-0.67527,-0.67527
62.8,-0.667816,-0.667816
62.9,-0.660653,-0.660653
63.0,-0.65377,-0.65377
63.1,-0.647155,-0.647155
63.2,-0.6408,-0.6408
63.3,-0.634694,-0.634694
63.4,-0.628829,-0.628829
63.5,-0.623196,-0.623196
63.6,-0.617788,-0.617788
63.7,-0.612596,-0.612596
63.8,-0.607615,-0.607615
63.9,-0.602838,-0.602838
64.0,-0.598259,-0.598259
64.1,-0.593872,-0.593872
64.2,-0.589673,-0.589673
64.3,-0.585657,-0.585657
64.4,-0.581819,-0.581819
64.5,-0.578155,-0.578155
64.6,-0.574662,-0.574662
64.7,-0.571337,-0.571337
64.8,-0.568177,-0.568177
64.9,-0.565179,-0.565179
65.0,-0.562341,-0.562341
65.1,-0.559661,-0.559661
65.2,-0.557137,-0.557137
65.3,-0.554769,-0.554769
65.4,-0.552556,-0.552556
65.5,-0.550496,-0.550496
65.6,-0.54859,-0.54859
65.7,-0.546838,-0.546838
65.8,-0.545241,-0.545241
65.9,-0.543799,-0.543799
66.0,-0.542514,-0.542514
66.1,-0.541387,-0.541387
66.2,-0.540421,-0.540421
66.3,-0.539617,-0.539617
66.4,-0.53898,-0.53898
66.5,-0.538513,-0.538513
66.6,-0.538219,-0.538219
66.7,-0.538103,-0.538103
66.8,-0.538171,-0.538171
66.9,-0.538428,-0.538428
67.0,-0.538882,-0.538882
67.1,-0.539538,-0.539538
67.2,-0.540407,-0.540407
67.3,-0.541495,-0.541495
67.4,-0.542814,-0.542814
67.5,-0.544375,-0.544375
67.6,-0.54619,-0.54619
67.7,-0.548272,-0.548272
67.8,-0.550636,-0.550636
67.9,-0.5533,-0.5533
68.0,-0.556281,-0.556281
68.1,-0.5596,-0.5596
68.2,-0.56328,-0.56328
68.3,-0.567345,-0.567345
68.4,-0.571823,-0.571823
68.5,-0.576745,-0.576745
68.6,-0.582146,-0.582146
68.7,-0.588065,-0.588065
68.8,-0.594543,-0.594543
68.9,-0.60163,-0.60163
69.0,-0.609379,-0.609379
69.1,-0.617852,-0.617852
69.2,-0.627118,-0.627118
69.3,-0.637253,-0.637253
69.4,-0.648348,-0.648348
69.5,-0.660502,-0.660502
69.6,-0.673831,-0.673831
69.7,-0.688466,-0.688466
69.8,-0.70456,-0.70456
69.9,-0.722288,-0.722288
70.0,-0.741852,-0.741852
70.1,-0.763492,-0.763492
70.2,-0.787482,-0.787482
70.3,-0.814151,-0.814151
70.4,-0.843883,-0.843883
70.5,-0.877138,-0.877138
70.6,-0.914465,-0.914465
70.7,-0.956525,-0.956525
70.8,-1.00412,-1.00412
70.9,-1.05822,-1.05822
71.0,-1.12004,-1.12004
71.1,-1.19106,-1.19106
71.2,-1.27316,-1.27316
71.3,-1.36868,-1.36868
71.4,-1.48063,-1.48063
71.5,-1.61289,-1.61289
71.6,-1.7705,-1.7705
71.7,-1.96013,-1.96013
71.8,-2.19068,-2.19068
71.9,-2.47419,-2.47419
72.0,-2.82722,-2.82722
72.1,-3.2728,-3.2728
72.2,-3.8435,-3.8435
72.3,-4.58602,-4.58602
72.4,-5.56816,-5.56816
72.5,-6.88866,-6.88866
72.6,-8.68556,-8.68556
72.7,-11.0972,-11.0972
72.8,-13.8323,-13.8323
72.9,-14.6035,-14.6035
73.0,-12.1666,-12.1666
73.1,-9.35148,-9.35148
73.2,-7.16809,-7.16809
73.3,-5.56556,-5.56556
73.4,-4.38955,-4.38955
73.5,-3.5178,-3.5178
73.6,-2.86348,-2.86348
73.7,-2.36584,-2.36584
73.8,-1.98229,-1.98229
73.9,-1.68279,-1.68279
74.0,-1.44597,-1.44597
74.1,-1.25646,-1.25646
74.2,-1.10309,-1.10309
74.3,-0.977671,-0.977671
74.4,-0.874088,-0.874088
74.5,-0.78776,-0.78776
74.6,-0.715202,-0.715202
74.7,-0.653734,-0.653734
74.8,-0.601278,-0.601278
74.9,-0.556206,-0.556206
75.0,-0.517229,-0.517229
75.1,-0.48332,-0.48332
75.2,-0.453654,-0.453654
75.3,-0.427562,-0.427562
75.4,-0.404498,-0.404498
75.5,-0.384013,-0.384013
75.6,-0.365737,-0.365737
75.7,-0.349361,-0.349361
75.8,-0.334628,-0.334628
75.9,-0.321321,-0.321321
76.0,-0.309257,-0.309257
76.1,-0.298279,-0.298279
76.2,-0.288256,-0.288256
76.3,-0.279074,-0.279074
76.4,-0.270635,-0.270635
76.5,-0.262854,-0.262854
76.6,-0.255658,-0.255658
76.7,-0.248984,-0.248984
76.8,-0.242777,-0.242777
76.9,-0.236987,-0.236987
77.0,-0.231572,-0.231572
77.1,-0.226495,-0.226495
77.2,-0.221722,-0.221722
77.3,-0.217225,-0.217225
77.4,-0.212976,-0.212976
77.5,-0.208953,-0.208953
77.6,-0.205136,-0.205136
77.7,-0.201506,-0.201506
77.8,-0.198045,-0.198045
77.9,-0.194741,-0.194741
78.0,-0.191578,-0.191578
78.1,-0.188546,-0.188546
78.2,-0.185633,-0.185633
78.3,-0.182829,-0.182829
78.4,-0.180127,-0.180127
78.5,-0.177517,-0.177517
78.6,-0.174992,-0.174992
78.7,-0.172546,-0.172546
78.8,-0.170173,-0.170173
78.9,-0.167867,-0.167867
79.0,-0.165623,-0.165623
79.1,-0.163437,-0.163437
79.2,-0.161304,-0.161304
79.3,-0.159221,-0.159221
79.4,-0.157183,-0.157183
79.5,-0.155188,-0.155188
79.6,-0.153233,-0.153233
79.7,-0.151314,-0.151314
79.8,-0.14943,-0.14943
79.9,-0.147578,-0.147578
80.0,-0.145756,-0.145756
80.1,-0.143961,-0.143961
80.2,-0.142192,-0.142192
80.3,-0.140447,-0.140447
80.4,-0.138725,-0.138725
80.5,-0.137024,-0.137024
80.6,-0.135342,-0.135342
80.7,-0.133679,-0.133679
80.8,-0.132033,-0.132033
80.9,-0.130404,-0.130404
81.0,-0.128789,-0.128789
81.1,-0.127188,-0.127188
81.2,-0.125601,-0.125601
81.3,-0.124026,-0.124026
81.4,-0.122462,-0.122462
81.5,-0.120909,-0.120909
81.6,-0.119367,-0.119367
81.7,-0.117834,-0.117834
81.8,-0.116309,-0.116309
81.9,-0.114794,-0.114794
82.0,-0.113286,-0.113286
82.1,-0.111785,-0.111785
82.2,-0.110291,-0.110291
82.3,-0.108804,-0.108804
82.4,-0.107322,-0.107322
82.5,-0.105847,-0.105847
82.6,-0.104376,-0.104376
