Angle (deg),Magnitude (dB),Phase (deg)
0.0,-10.3929,-4.35718
0.1,-10.3929,-4.357
0.2,-10.3929,-4.35649
0.3,-10.393,-4.35562
0.4,-10.3932,-4.35442
0.5,-10.3933,-4.35286
0.6,-10.3935,-4.35097
0.7,-10.3938,-4.34873
0.8,-10.394,-4.34614
0.9,-10.3943,-4.34321
1.0,-10.3947,-4.33993
1.1,-10.3951,-4.33631
1.2,-10.3955,-4.33234
1.3,-10.3959,-4.32803
1.4,-10.3964,-4.32338
1.5,-10.3969,-4.31838
1.6,-10.3975,-4.31303
1.7,-10.3981,-4.30734
1.8,-10.3988,-4.30131
1.9,-10.3994,-4.29493
2.0,-10.4001,-4.28821
2.1,-10.4009,-4.28114
2.2,-10.4017,-4.27373
2.3,-10.4025,-4.26597
2.4,-10.4033,-4.25787
2.5,-10.4042,-4.24943
2.6,-10.4052,-4.24064
2.7,-10.4061,-4.23151
2.8,-10.4071,-4.22203
2.9,-10.4082,-4.21221
3.0,-10.4093,-4.20205
3.1,-10.4104,-4.19154
3.2,-10.4115,-4.18069
3.3,-10.4127,-4.16949
3.4,-10.414,-4.15795
3.5,-10.4152,-4.14607
3.6,-10.4165,-4.13384
3.7,-10.4179,-4.12128
3.8,-10.4193,-4.10836
3.9,-10.4207,-4.09511
4.0,-10.4221,-4.08151
4.1,-10.4236,-4.06757
4.2,-10.4252,-4.05328
4.3,-10.4267,-4.03866
4.4,-10.4283,-4.02369
4.5,-10.43,-4.00837
4.6,-10.4317,-3.99272
4.7,-10.4334,-3.97672
4.8,-10.4352,-3.96038
4.9,-10.437,-3.9437
5.0,-10.4388,-3.92668
5.1,-10.4407,-3.90932
5.2,-10.4426,-3.89161
5.3,-10.4446,-3.87356
5.4,-10.4466,-3.85517
5.5,-10.4486,-3.83644
5.6,-10.4507,-3.81737
5.7,-10.4528,-3.79796
5.8,-10.455,-3.7782
5.9,-10.4572,-3.75811
6.0,-10.4594,-3.73767
6.1,-10.4617,-3.7169
6.2,-10.464,-3.69578
6.3,-10.4664,-3.67433
6.4,-10.4688,-3.65253
6.5,-10.4712,-3.6304
6.6,-10.4737,-3.60792
6.7,-10.4762,-3.58511
6.8,-10.4788,-3.56195
6.9,-10.4814,-3.53846
7.0,-10.4841,-3.51463
7.1,-10.4868,-3.49046
7.2,-10.4895,-3.46595
7.3,-10.4923,-3.4411
7.4,-10.4951,-3.41592
7.5,-10.498,-3.39039
7.6,-10.5009,-3.36453
7.7,-10.5038,-3.33833
7.8,-10.5068,-3.31179
7.9,-10.5098,-3.28492
8.0,-10.5129,-3.25771
8.1,-10.516,-3.23016
8.2,-10.5192,-3.20227
8.3,-10.5224,-3.17405
8.4,-10.5257,-3.14549
8.5,-10.529,-3.1166
8.6,-10.5323,-3.08737
8.7,-10.5357,-3.05781
8.8,-10.5391,-3.02791
8.9,-10.5426,-2.99767
9.0,-10.5461,-2.9671
9.1,-10.5497,-2.93619
9.2,-10.5533,-2.90495
9.3,-10.557,-2.87338
9.4,-10.5607,-2.84147
9.5,-10.5644,-2.80923
9.6,-10.5682,-2.77665
9.7,-10.5721,-2.74375
9.8,-10.576,-2.7105
9.9,-10.5799,-2.67693
10.0,-10.5839,-2.64302
10.1,-10.588,-2.60878
10.2,-10.5921,-2.57421
10.3,-10.5962,-2.53931
10.4,-10.6004,-2.50407
10.5,-10.6046,-2.46851
10.6,-10.6089,-2.43261
10.7,-10.6132,-2.39638
10.8,-10.6176,-2.35983
10.9,-10.622,-2.32294
11.0,-10.6265,-2.28572
11.1,-10.6311,-2.24817
11.2,-10.6356,-2.2103
11.3,-10.6403,-2.17209
11.4,-10.645,-2.13356
11.5,-10.6497,-2.09469
11.6,-10.6545,-2.0555
11.7,-10.6593,-2.01599
11.8,-10.6642,-1.97614
11.9,-10.6692,-1.93597
12.0,-10.6742,-1.89547
12.1,-10.6792,-1.85464
12.2,-10.6843,-1.81349
12.3,-10.6895,-1.77201
12.4,-10.6947,-1.7302
12.5,-10.7,-1.68807
12.6,-10.7053,-1.64562
12.7,-10.7107,-1.60284
12.8,-10.7161,-1.55974
12.9,-10.7216,-1.51631
13.0,-10.7271,-1.47256
13.1,-10.7327,-1.42848
13.2,-10.7384,-1.38409
13.3,-10.7441,-1.33937
13.4,-10.7499,-1.29433
13.5,-10.7557,-1.24896
13.6,-10.7616,-1.20328
13.7,-10.7675,-1.15727
13.8,-10.7736,-1.11094
13.9,-10.7796,-1.0643
14.0,-10.7857,-1.01733
14.1,-10.7919,-0.970042
14.2,-10.7982,-0.922436
14.3,-10.8045,-0.874511
14.4,-10.8108,-0.826268
14.5,-10.8173,-0.777707
14.6,-10.8237,-0.728827
14.7,-10.8303,-0.679631
14.8,-10.8369,-0.630118
14.9,-10.8436,-0.580288
15.0,-10.8503,-0.530142
15.1,-10.8571,-0.47968
15.2,-10.864,-0.428904
15.3,-10.8709,-0.377812
15.4,-10.8779,-0.326406
15.5,-10.885,-0.274686
15.6,-10.8921,-0.222652
15.7,-10.8993,-0.170306
15.8,-10.9065,-0.117646
15.9,-10.9138,-0.0646748
16.0,-10.9212,-0.0113914
16.1,-10.9287,0.0422033
16.2,-10.9362,0.0961089
16.3,-10.9438,0.150325
16.4,-10.9515,0.204851
16.5,-10.9592,0.259687
16.6,-10.967,0.314831
16.7,-10.9748,0.370285
16.8,-10.9828,0.426046
16.9,-10.9908,0.482115
17.0,-10.9989,0.538491
17.1,-11.007,0.595174
17.2,-11.0152,0.652163
17.3,-11.0235,0.709458
17.4,-11.0319,0.767057
17.5,-11.0403,0.824962
17.6,-11.0489,0.883171
17.7,-11.0575,0.941683
17.8,-11.0661,1.0005
17.9,-11.0749,1.05962
18.0,-11.0837,1.11904
18.1,-11.0926,1.17876
18.2,-11.1015,1.23878
18.3,-11.1106,1.29911
18.4,-11.1197,1.35973
18.5,-11.1289,1.42065
18.6,-11.1382,1.48187
18.7,-11.1475,1.54339
18.8,-11.157,1.60521
18.9,-11.1665,1.66733
19.0,-11.1761,1.72974
19.1,-11.1858,1.79245
19.2,-11.1955,1.85545
19.3,-11.2054,1.91875
19.4,-11.2153,1.98234
19.5,-11.2253,2.04623
19.6,-11.2354,2.11041
19.7,-11.2456,2.17488
19.8,-11.2559,2.23964
19.9,-11.2662,2.3047
20.0,-11.2767,2.37004
20.1,-11.2872,2.43568
20.2,-11.2978,2.50161
20.3,-11.3085,2.56782
20.4,-11.3193,2.63432
20.5,-11.3302,2.70111
20.6,-11.3411,2.76819
20.7,-11.3522,2.83555
20.8,-11.3633,2.9032
20.9,-11.3746,2.97114
21.0,-11.3859,3.03935
21.1,-11.3973,3.10786
21.2,-11.4088,3.17664
21.3,-11.4204,3.24571
21.4,-11.4322,3.31505
21.5,-11.444,3.38468
21.6,-11.4558,3.45459
21.7,-11.4678,3.52478
21.8,-11.4799,3.59525
21.9,-11.4921,3.66599
22.0,-11.5044,3.73702
22.1,-11.5168,3.80832
22.2,-11.5293,3.87989
22.3,-11.5419,3.95174
22.4,-11.5545,4.02387
22.5,-11.5673,4.09626
22.6,-11.5802,4.16893
22.7,-11.5932,4.24188
22.8,-11.6063,4.31509
22.9,-11.6195,4.38857
23.0,-11.6328,4.46233
23.1,-11.6462,4.53635
23.2,-11.6597,4.61064
23.3,-11.6734,4.6852
23.4,-11.6871,4.76002
23.5,-11.7009,4.83511
23.6,-11.7149,4.91047
23.7,-11.729,4.98609
23.8,-11.7431,5.06197
23.9,-11.7574,5.13811
24.0,-11.7718,5.21452
24.1,-11.7863,5.29118
24.2,-11.801,5.36811
24.3,-11.8157,5.44529
24.4,-11.8306,5.52273
24.5,-11.8455,5.60043
24.6,-11.8606,5.67838
24.7,-11.8758,5.75659
24.8,-11.8912,5.83506
24.9,-11.9066,5.91377
25.0,-11.9222,5.99274
25.1,-11.9379,6.07196
25.2,-11.9537,6.15143
25.3,-11.9696,6.23115
25.4,-11.9857,6.31112
25.5,-12.0019,6.39133
25.6,-12.0182,6.47179
25.7,-12.0346,6.5525
25.8,-12.0512,6.63345
25.9,-12.0679,6.71465
26.0,-12.0847,6.79608
26.1,-12.1017,6.87776
26.2,-12.1188,6.95968
26.3,-12.136,7.04184
26.4,-12.1533,7.12423
26.5,-12.1708,7.20687
26.6,-12.1885,7.28973
26.7,-12.2062,7.37284
26.8,-12.2241,7.45617
26.9,-12.2421,7.53974
27.0,-12.2603,7.62354
27.1,-12.2786,7.70757
27.2,-12.2971,7.79183
27.3,-12.3157,7.87632
27.4,-12.3344,7.96104
27.5,-12.3533,8.04597
27.6,-12.3724,8.13114
27.7,-12.3915,8.21653
27.8,-12.4109,8.30213
27.9,-12.4303,8.38796
28.0,-12.45,8.47401
28.1,-12.4697,8.56028
28.2,-12.4897,8.64676
28.3,-12.5097,8.73346
28.4,-12.53,8.82038
28.5,-12.5504,8.9075
28.6,-12.5709,8.99484
28.7,-12.5916,9.08239
28.8,-12.6125,9.17014
28.9,-12.6335,9.25811
29.0,-12.6547,9.34628
29.1,-12.6761,9.43465
29.2,-12.6976,9.52323
29.3,-12.7193,9.61201
29.4,-12.7411,9.70099
29.5,-12.7631,9.79017
29.6,-12.7853,9.87955
29.7,-12.8077,9.96912
29.8,-12.8302,10.0589
29.9,-12.8529,10.1488
30.0,-12.8758,10.239
30.1,-12.8988,10.3293
30.2,-12.922,10.4199
30.3,-12.9454,10.5106
30.4,-12.969,10.6015
30.5,-12.9928,10.6926
30.6,-13.0167,10.7838
30.7,-13.0409,10.8753
30.8,-13.0652,10.9669
30.9,-13.0897,11.0587
31.0,-13.1144,11.1507
31.1,-13.1393,11.2428
31.2,-13.1644,11.3351
31.3,-13.1896,11.4276
31.4,-13.2151,11.5203
31.5,-13.2408,11.6131
31.6,-13.2666,11.7061
31.7,-13.2927,11.7993
31.8,-13.319,11.8926
31.9,-13.3454,11.986
32.0,-13.3721,12.0797
32.1,-13.399,12.1735
32.2,-13.4261,12.2674
32.3,-13.4534,12.3615
32.4,-13.4809,12.4557
32.5,-13.5086,12.5501
32.6,-13.5365,12.6446
32.7,-13.5647,12.7393
32.8,-13.5931,12.8341
32.9,-13.6217,12.929
33.0,-13.6505,13.0241
33.1,-13.6795,13.1193
33.2,-13.7088,13.2147
33.3,-13.7383,13.3102
33.4,-13.768,13.4058
33.5,-13.798,13.5015
33.6,-13.8282,13.5973
33.7,-13.8586,13.6933
33.8,-13.8893,13.7894
33.9,-13.9202,13.8856
34.0,-13.9513,13.9819
34.1,-13.9827,14.0784
34.2,-14.0144,14.1749
34.3,-14.0463,14.2715
34.4,-14.0784,14.3683
34.5,-14.1108,14.4651
34.6,-14.1435,14.5621
34.7,-14.1764,14.6591
34.8,-14.2096,14.7563
34.9,-14.243,14.8535
35.0,-14.2767,14.9508
35.1,-14.3107,15.0482
35.2,-14.3449,15.1456
35.3,-14.3795,15.2432
35.4,-14.4143,15.3408
35.5,-14.4493,15.4385
35.6,-14.4847,15.5363
35.7,-14.5203,15.6341
35.8,-14.5563,15.732
35.9,-14.5925,15.83
36.0,-14.629,15.928
36.1,-14.6658,16.026
36.2,-14.7029,16.1241
36.3,-14.7403,16.2223
36.4,-14.778,16.3205
36.5,-14.8161,16.4188
36.6,-14.8544,16.517
36.7,-14.893,16.6153
36.8,-14.932,16.7137
36.9,-14.9713,16.8121
37.0,-15.0109,16.9104
37.1,-15.0508,17.0089
37.2,-15.091,17.1073
37.3,-15.1316,17.2057
37.4,-15.1726,17.3041
37.5,-15.2138,17.4026
37.6,-15.2554,17.501
37.7,-15.2974,17.5994
37.8,-15.3397,17.6979
37.9,-15.3824,17.7963
38.0,-15.4254,17.8946
38.1,-15.4688,17.993
38.2,-15.5126,18.0913
38.3,-15.5567,18.1896
38.4,-15.6012,18.2879
38.5,-15.6461,18.3861
38.6,-15.6913,18.4843
38.7,-15.737,18.5824
38.8,-15.783,18.6805
38.9,-15.8294,18.7785
39.0,-15.8763,18.8764
39.1,-15.9235,18.9743
39.2,-15.9712,19.0721
39.3,-16.0193,19.1698
39.4,-16.0678,19.2674
39.5,-16.1167,19.3649
39.6,-16.166,19.4623
39.7,-16.2158,19.5596
39.8,-16.266,19.6568
39.9,-16.3167,19.7539
40.0,-16.3678,19.8508
40.1,-16.4194,19.9476
40.2,-16.4714,20.0443
40.3,-16.5239,20.1408
40.4,-16.5769,20.2372
40.5,-16.6304,20.3334
40.6,-16.6843,20.4295
40.7,-16.7388,20.5253
40.8,-16.7937,20.621
40.9,-16.8492,20.7165
41.0,-16.9052,20.8119
41.1,-16.9616,20.907
41.2,-17.0186,21.0018
41.3,-17.0762,21.0965
41.4,-17.1343,21.191
41.5,-17.1929,21.2852
41.6,-17.2521,21.3791
41.7,-17.3118,21.4728
41.8,-17.3722,21.5662
41.9,-17.4331,21.6594
42.0,-17.4946,21.7522
42.1,-17.5567,21.8448
42.2,-17.6194,21.9371
42.3,-17.6827,22.029
42.4,-17.7466,22.1206
42.5,-17.8112,22.2119
42.6,-17.8764,22.3028
42.7,-17.9422,22.3934
42.8,-18.0088,22.4835
42.9,-18.0759,22.5733
43.0,-18.1438,22.6627
43.1,-18.2124,22.7517
43.2,-18.2817,22.8402
43.3,-18.3517,22.9283
43.4,-18.4224,23.0159
43.5,-18.4938,23.1031
43.6,-18.566,23.1898
43.7,-18.639,23.276
43.8,-18.7128,23.3616
43.9,-18.7873,23.4467
44.0,-18.8627,23.5313
44.1,-18.9388,23.6153
44.2,-19.0158,23.6987
44.3,-19.0936,23.7814
44.4,-19.1724,23.8636
44.5,-19.2519,23.9451
44.6,-19.3324,24.0259
44.7,-19.4138,24.106
44.8,-19.4961,24.1854
44.9,-19.5794,24.2641
45.0,-19.6636,24.3419
45.1,-19.7488,24.419
45.2,-19.835,24.4953
45.3,-19.9222,24.5707
45.4,-20.0104,24.6453
45.5,-20.0998,24.7189
45.6,-20.1902,24.7916
45.7,-20.2817,24.8634
45.8,-20.3743,24.9341
45.9,-20.4681,25.0038
46.0,-20.5631,25.0724
46.1,-20.6592,25.1399
46.2,-20.7566,25.2062
46.3,-20.8553,25.2714
46.4,-20.9552,25.3353
46.5,-21.0565,25.3979
46.6,-21.1591,25.4592
46.7,-21.263,25.5191
46.8,-21.3684,25.5776
46.9,-21.4752,25.6346
47.0,-21.5835,25.69
47.1,-21.6933,25.7439
47.2,-21.8047,25.796
47.3,-21.9176,25.8465
47.4,-22.0322,25.8951
47.5,-22.1484,25.9419
47.6,-22.2664,25.9867
47.7,-22.3861,26.0294
47.8,-22.5076,26.0701
47.9,-22.631,26.1085
48.0,-22.7563,26.1446
48.1,-22.8836,26.1783
48.2,-23.0129,26.2095
48.3,-23.1442,26.2381
48.4,-23.2778,26.2639
48.5,-23.4135,26.2868
48.6,-23.5515,26.3067
48.7,-23.6918,26.3234
48.8,-23.8346,26.3368
48.9,-23.9799,26.3468
49.0,-24.1277,26.353
49.1,-24.2783,26.3555
49.2,-24.4315,26.3538
49.3,-24.5877,26.3479
49.4,-24.7468,26.3375
49.5,-24.9089,26.3224
49.6,-25.0743,26.3022
49.7,-25.2429,26.2767
49.8,-25.4149,26.2456
49.9,-25.5905,26.2085
50.0,-25.7698,26.1651
50.1,-25.9529,26.115
50.2,-26.14,26.0578
50.3,-26.3313,25.9929
50.4,-26.5269,25.9199
50.5,-26.727,25.8382
50.6,-26.9319,25.7473
50.7,-27.1417,25.6463
50.8,-27.3567,25.5347
50.9,-27.5772,25.4116
51.0,-27.8033,25.2761
51.1,-28.0354,25.1272
51.2,-28.2738,24.9639
51.3,-28.5188,24.7849
51.4,-28.7707,24.5888
51.5,-29.0301,24.3742
51.6,-29.2971,24.1393
51.7,-29.5725,23.8823
51.8,-29.8565,23.6009
51.9,-30.1497,23.2928
52.0,-30.4528,22.9551
52.1,-30.7663,22.5846
52.2,-31.091,22.1778
52.3,-31.4275,21.7303
52.4,-31.7767,21.2374
52.5,-32.1396,20.6934
52.6,-32.517,20.0916
52.7,-32.9102,19.4243
52.8,-33.3201,18.6823
52.9,-33.7482,17.8547
53.0,-34.1959,16.9284
53.1,-34.6646,15.8877
53.2,-35.1559,14.7135
53.3,-35.6715,13.3827
53.4,-36.2131,11.8666
53.5,-36.7822,10.1302
53.6,-37.3803,8.12982
53.7,-38.0081,5.81139
53.8,-38.6652,3.10778
53.9,-39.3498,-0.0636993
54.0,-40.0567,-3.80312
54.1,-40.7759,-8.22734
54.2,-41.4901,-13.4635
54.3,-42.1716,-19.6309
54.4,-42.78,-26.8037
54.5,-43.2635,-34.9538
54.6,-43.5669,-43.8887
54.7,-43.6481,-53.2325
54.8,-43.4948,-62.4937
54.9,-43.1304,-71.2057
55.0,-42.6036,-79.0497
55.1,-41.9698,-85.8927
55.2,-41.2775,-91.7472
55.3,-40.5629,-96.7076
55.4,-39.85,-100.899
55.5,-39.1534,-104.446
55.6,-38.4811,-107.461
55.7,-37.8372,-110.037
55.8,-37.2229,-112.253
55.9,-36.6382,-114.17
56.0,-36.0819,-115.84
56.1,-35.5527,-117.302
56.2,-35.049,-118.59
56.3,-34.5689,-119.73
56.4,-34.111,-120.745
56.5,-33.6736,-121.65
56.6,-33.2552,-122.463
56.7,-32.8546,-123.195
56.8,-32.4704,-123.855
56.9,-32.1015,-124.454
57.0,-31.7468,-124.998
57.1,-31.4054,-125.494
57.2,-31.0765,-125.947
57.3,-30.7591,-126.361
57.4,-30.4527,-126.741
57.5,-30.1564,-127.09
57.6,-29.8698,-127.411
57.7,-29.5922,-127.707
57.8,-29.3231,-127.98
57.9,-29.0621,-128.233
58.0,-28.8087,-128.466
58.1,-28.5625,-128.682
58.2,-28.3232,-128.883
58.3,-28.0903,-129.069
58.4,-27.8636,-129.242
58.5,-27.6427,-129.402
58.6,-27.4275,-129.551
58.7,-27.2175,-129.69
58.8,-27.0126,-129.819
58.9,-26.8126,-129.939
59.0,-26.6172,-130.051
59.1,-26.4263,-130.155
59.2,-26.2396,-130.252
59.3,-26.057,-130.342
59.4,-25.8784,-130.426
59.5,-25.7034,-130.505
59.6,-25.5321,-130.577
59.7,-25.3643,-130.645
59.8,-25.1998,-130.708
59.9,-25.0386,-130.767
60.0,-24.8804,-130.822
60.1,-24.7252,-130.872
60.2,-24.573,-130.919
60.3,-24.4235,-130.963
60.4,-24.2767,-131.003
60.5,-24.1325,-131.041
60.6,-23.9909,-131.075
60.7,-23.8516,-131.107
60.8,-23.7148,-131.137
60.9,-23.5802,-131.164
61.0,-23.4478,-131.189
61.1,-23.3176,-131.212
61.2,-23.1895,-131.234
61.3,-23.0634,-131.253
61.4,-22.9393,-131.271
61.5,-22.817,-131.287
61.6,-22.6966,-131.301
61.7,-22.578,-131.315
61.8,-22.4612,-131.327
61.9,-22.3461,-131.338
62.0,-22.2326,-131.347
62.1,-22.1207,-131.356
62.2,-22.0104,-131.364
62.3,-21.9016,-131.371
62.4,-21.7944,-131.377
62.5,-21.6885,-131.382
62.6,-21.5841,-131.386
62.7,-21.481,-131.39
62.8,-21.3793,-131.394
62.9,-21.2789,-131.396
63.0,-21.1798,-131.399
63.1,-21.0819,-131.401
63.2,-20.9853,-131.402
63.3,-20.8898,-131.403
63.4,-20.7955,-131.404
63.5,-20.7023,-131.405
63.6,-20.6102,-131.405
63.7,-20.5192,-131.405
63.8,-20.4293,-131.405
63.9,-20.3404,-131.405
64.0,-20.2525,-131.405
64.1,-20.1655,-131.405
64.2,-20.0796,-131.405
64.3,-19.9946,-131.404
64.4,-19.9105,-131.404
64.5,-19.8273,-131.404
64.6,-19.745,-131.404
64.7,-19.6636,-131.404
64.8,-19.583,-131.404
64.9,-19.5032,-131.405
65.0,-19.4242,-131.405
65.1,-19.3461,-131.406
65.2,-19.2687,-131.407
65.3,-19.192,-131.409
65.4,-19.1162,-131.41
65.5,-19.041,-131.412
65.6,-18.9665,-131.414
65.7,-18.8928,-131.417
65.8,-18.8197,-131.42
65.9,-18.7473,-131.423
66.0,-18.6755,-131.427
66.1,-18.6044,-131.431
66.2,-18.5339,-131.435
66.3,-18.4641,-131.44
66.4,-18.3948,-131.446
66.5,-18.3261,-131.452
66.6,-18.258,-131.458
66.7,-18.1905,-131.465
66.8,-18.1235,-131.472
66.9,-18.057,-131.48
67.0,-17.9911,-131.489
67.1,-17.9257,-131.498
67.2,-17.8608,-131.507
67.3,-17.7964,-131.517
67.4,-17.7325,-131.528
67.5,-17.6691,-131.54
67.6,-17.6061,-131.552
67.7,-17.5436,-131.564
67.8,-17.4815,-131.577
67.9,-17.4199,-131.591
68.0,-17.3587,-131.606
68.1,-17.2979,-131.621
68.2,-17.2375,-131.637
68.3,-17.1775,-131.654
68.4,-17.1179,-131.671
68.5,-17.0587,-131.689
68.6,-16.9999,-131.707
68.7,-16.9414,-131.727
68.8,-16.8833,-131.747
68.9,-16.8255,-131.768
69.0,-16.768,-131.79
69.1,-16.7109,-131.812
69.2,-16.6541,-131.835
69.3,-16.5976,-131.859
69.4,-16.5414,-131.884
69.5,-16.4855,-131.909
69.6,-16.4299,-131.936
69.7,-16.3746,-131.963
69.8,-16.3196,-131.991
69.9,-16.2648,-132.019
70.0,-16.2102,-132.049
70.1,-16.156,-132.079
70.2,-16.1019,-132.111
70.3,-16.0481,-132.143
70.4,-15.9945,-132.176
70.5,-15.9412,-132.209
70.6,-15.888,-132.244
70.7,-15.8351,-132.28
70.8,-15.7823,-132.316
70.9,-15.7298,-132.353
71.0,-15.6774,-132.391
71.1,-15.6252,-132.43
71.2,-15.5732,-132.47
71.3,-15.5213,-132.511
71.4,-15.4696,-132.553
71.5,-15.4181,-132.596
71.6,-15.3666,-132.639
71.7,-15.3154,-132.684
71.8,-15.2642,-132.729
71.9,-15.2132,-132.775
72.0,-15.1623,-132.823
72.1,-15.1115,-132.871
72.2,-15.0607,-132.92
72.3,-15.0101,-132.97
72.4,-14.9596,-133.021
72.5,-14.9092,-133.073
72.6,-14.8588,-133.126
72.7,-14.8085,-133.18
72.8,-14.7582,-133.235
72.9,-14.708,-133.291
73.0,-14.6579,-133.347
73.1,-14.6078,-133.405
73.2,-14.5577,-133.464
73.3,-14.5077,-133.524
73.4,-14.4577,-133.584
73.5,-14.4077,-133.646
73.6,-14.3577,-133.709
73.7,-14.3077,-133.773
73.8,-14.2577,-133.837
73.9,-14.2077,-133.903
74.0,-14.1576,-133.97
74.1,-14.1076,-134.038
74.2,-14.0575,-134.106
74.3,-14.0074,-134.176
74.4,-13.9572,-134.247
74.5,-13.907,-134.319
74.6,-13.8567,-134.392
74.7,-13.8063,-134.465
74.8,-13.7559,-134.54
74.9,-13.7054,-134.616
75.0,-13.6548,-134.693
75.1,-13.6042,-134.771
75.2,-13.5534,-134.85
75.3,-13.5025,-134.93
75.4,-13.4515,-135.011
75.5,-13.4004,-135.094
75.6,-13.3491,-135.177
75.7,-13.2977,-135.261
75.8,-13.2462,-135.347
75.9,-13.1946,-135.433
76.0,-13.1427,-135.521
76.1,-13.0907,-135.609
76.2,-13.0386,-135.699
76.3,-12.9863,-135.79
76.4,-12.9338,-135.881
76.5,-12.881,-135.974
76.6,-12.8281,-136.068
76.7,-12.775,-136.163
76.8,-12.7217,-136.26
76.9,-12.6682,-136.357
77.0,-12.6144,-136.455
77.1,-12.5604,-136.555
77.2,-12.5062,-136.656
77.3,-12.4517,-136.758
77.4,-12.3969,-136.861
77.5,-12.3419,-136.965
77.6,-12.2866,-137.07
77.7,-12.2311,-137.176
77.8,-12.1752,-137.284
77.9,-12.1191,-137.393
78.0,-12.0626,-137.503
78.1,-12.0058,-137.614
78.2,-11.9488,-137.726
78.3,-11.8913,-137.839
78.4,-11.8336,-137.954
78.5,-11.7755,-138.07
78.6,-11.7171,-138.187
78.7,-11.6583,-138.306
78.8,-11.5991,-138.425
78.9,-11.5395,-138.546
79.0,-11.4796,-138.669
79.1,-11.4192,-138.792
79.2,-11.3585,-138.917
79.3,-11.2974,-139.043
79.4,-11.2358,-139.171
79.5,-11.1738,-139.3
79.6,-11.1113,-139.43
79.7,-11.0484,-139.561
79.8,-10.9851,-139.694
79.9,-10.9213,-139.829
80.0,-10.857,-139.965
80.1,-10.7922,-140.102
80.2,-10.7269,-140.241
80.3,-10.6611,-140.381
80.4,-10.5948,-140.523
80.5,-10.528,-140.667
80.6,-10.4606,-140.812
80.7,-10.3927,-140.959
80.8,-10.3242,-141.107
80.9,-10.2552,-141.257
81.0,-10.1855,-141.409
81.1,-10.1153,-141.562
81.2,-10.0445,-141.718
81.3,-9.97308,-141.875
81.4,-9.90104,-142.034
81.5,-9.82836,-142.195
81.6,-9.75503,-142.357
81.7,-9.68105,-142.522
81.8,-9.60639,-142.689
81.9,-9.53106,-142.858
82.0,-9.45503,-143.029
82.1,-9.37829,-143.202
82.2,-9.30084,-143.378
82.3,-9.22265,-143.556
82.4,-9.14372,-143.736
82.5,-9.06403,-143.919
82.6,-8.98358,-144.104
82.7,-8.90233,-144.292
82.8,-8.82029,-144.482
82.9,-8.73744,-144.675
83.0,-8.65376,-144.871
83.1,-8.56925,-145.07
83.2,-8.48387,-145.271
83.3,-8.39763,-145.476
83.4,-8.31051,-145.684
83.5,-8.22248,-145.896
83.6,-8.13355,-146.11
83.7,-8.04368,-146.329
83.8,-7.95286,-146.55
83.9,-7.86109,-146.776
84.0,-7.76833,-147.005
84.1,-7.67459,-147.239
84.2,-7.57983,-147.476
84.3,-7.48405,-147.718
84.4,-7.38722,-147.964
84.5,-7.28933,-148.215
84.6,-7.19036,-148.471
84.7,-7.09029,-148.731
84.8,-6.98912,-148.997
84.9,-6.88681,-149.268
85.0,-6.78335,-149.545
85.1,-6.67873,-149.827
85.2,-6.57292,-150.116
85.3,-6.46591,-150.41
85.4,-6.35767,-150.711
85.5,-6.2482,-151.019
